EXPID. 0001
[电化学]: CV : 0 >> 0.7 >> 0 >> 0(V) @ 0.01(V/s) X 10(Seg)
起始电位 (V),0
上限电位 (V),0.7
下限电位 (V),0
终止电位 (V),0
扫速 (V/s),0.01
电解液 信息:
KOH,1
0.001,3.436523E-05
0.002,3.500898E-05
0.003,3.565273E-05
0.004,3.626582E-05
0.005,3.684827E-05
0.006,3.746136E-05
0.007,3.801315E-05
0.008,3.847297E-05
0.009,3.905542E-05
0.01,3.963786E-05
0.011,4.012834E-05
0.012,4.071078E-05
0.013,4.129322E-05
0.014,4.1845E-05
0.015,4.251941E-05
0.016,4.325512E-05
0.017,4.380691E-05
0.018,4.442001E-05
0.019,4.506376E-05
0.02,4.570751E-05
0.021,4.622864E-05
0.022,4.681108E-05
0.023,4.75468E-05
0.024,4.819056E-05
0.025,4.895692E-05
0.026,4.975395E-05
0.027,5.036705E-05
0.028,5.110276E-05
0.029,5.180782E-05
0.03,5.248223E-05
0.031,5.321795E-05
0.032,5.401497E-05
0.033,5.478134E-05
0.034,5.567033E-05
0.035,5.652867E-05
0.036,5.735634E-05
0.037,5.815337E-05
0.038,5.898106E-05
0.039,5.990069E-05
0.04,6.069772E-05
0.041,6.155606E-05
0.042,6.250635E-05
0.043,6.351797E-05
0.044,6.456023E-05
0.045,6.541856E-05
0.046,6.636886E-05
0.047,6.741113E-05
0.048,6.833077E-05
0.049,6.937304E-05
0.05,7.047661E-05
0.051,7.145757E-05
0.052,7.268375E-05
0.053,7.390995E-05
0.054,7.501352E-05
0.055,7.61784E-05
0.056,7.734329E-05
0.057,7.850817E-05
0.058,7.979568E-05
0.059,8.102187E-05
0.06,8.227872E-05
0.061,8.350491E-05
0.062,8.482307E-05
0.063,8.626385E-05
0.064,8.764331E-05
0.065,8.911475E-05
0.066,9.061684E-05
0.067,9.208826E-05
0.068,9.371297E-05
0.069,9.51844E-05
0.07,9.67478E-05
0.071,9.83725E-05
0.072,0.0001000585
0.073,0.0001015606
0.074,0.0001033692
0.075,0.0001050552
0.076,0.0001067719
0.077,0.0001085499
0.078,0.0001103585
0.079,0.0001123511
0.08,0.0001141597
0.081,0.0001160603
0.082,0.0001180835
0.083,0.0001200761
0.084,0.0001222526
0.085,0.0001242758
0.086,0.0001264523
0.087,0.0001287821
0.088,0.0001310199
0.089,0.0001333496
0.09,0.0001356794
0.091,0.0001379479
0.092,0.0001404003
0.093,0.0001427913
0.094,0.0001452131
0.095,0.0001477268
0.096,0.0001503018
0.097,0.0001529074
0.098,0.0001556664
0.099,0.0001583946
0.1,0.0001612762
0.101,0.0001640964
0.102,0.0001670086
0.103,0.0001699209
0.104,0.0001728637
0.105,0.0001758679
0.106,0.0001788108
0.107,0.0001818762
0.108,0.000185095
0.109,0.0001882831
0.11,0.0001916245
0.111,0.0001949352
0.112,0.0001982459
0.113,0.0002015873
0.114,0.0002049287
0.115,0.0002083927
0.116,0.0002118567
0.117,0.0002154126
0.118,0.0002188766
0.119,0.0002224939
0.12,0.0002262644
0.121,0.0002299737
0.122,0.0002337136
0.123,0.0002375761
0.124,0.0002414999
0.125,0.0002452398
0.126,0.0002491636
0.127,0.0002530874
0.128,0.0002570725
0.129,0.000260935
0.13,0.0002651041
0.131,0.0002691812
0.132,0.0002732889
0.133,0.000277458
0.134,0.0002816271
0.135,0.0002858881
0.136,0.0002902104
0.137,0.0002945634
0.138,0.0003025748
0.139,0.0003068665
0.14,0.0003114647
0.141,0.0003160629
0.142,0.0003206612
0.143,0.0003249529
0.144,0.0003298576
0.145,0.0003344558
0.146,0.0003390541
0.147,0.0003439588
0.148,0.0003485571
0.149,0.0003537684
0.15,0.0003586731
0.151,0.0003635779
0.152,0.0003687892
0.153,0.0003740006
0.154,0.0003792119
0.155,0.0003847298
0.156,0.0003899411
0.157,0.0003954589
0.158,0.0004009768
0.159,0.0004061882
0.16,0.0004123191
0.161,0.000417837
0.162,0.0004233549
0.163,0.0004294858
0.164,0.0004353102
0.165,0.0004411346
0.166,0.0004475722
0.167,0.0004540097
0.168,0.0004598341
0.169,0.0004665781
0.17,0.0004727091
0.171,0.0004788401
0.172,0.0004861972
0.173,0.0004920216
0.174,0.0004990723
0.175,0.0005058163
0.176,0.0005122538
0.177,0.000519611
0.178,0.0005263551
0.179,0.0005327926
0.18,0.0005410694
0.181,0.0005478134
0.182,0.0005551706
0.183,0.0005631408
0.184,0.0005695784
0.185,0.0005775486
0.186,0.0005855189
0.187,0.0005922629
0.188,0.0006011529
0.189,0.0006082035
0.19,0.0006155606
0.191,0.000624144
0.192,0.0006318077
0.193,0.0006394714
0.194,0.0006477482
0.195,0.0006551053
0.196,0.0006636887
0.197,0.0006713524
0.198,0.0006796292
0.199,0.0006882126
0.2,0.0006955697
0.201,0.0007044596
0.202,0.0007118168
0.203,0.0007191739
0.204,0.0007289835
0.205,0.0007375668
0.206,0.000744924
0.207,0.0007535074
0.208,0.0007614776
0.209,0.0007694478
0.21,0.0007771116
0.211,0.0007860014
0.212,0.0007939717
0.213,0.0008010223
0.214,0.0008096057
0.215,0.0008172694
0.216,0.0008246265
0.217,0.0008335165
0.218,0.0008408736
0.219,0.0008491504
0.22,0.000856201
0.221,0.0008644778
0.222,0.0008724481
0.223,0.000878579
0.224,0.0008874689
0.225,0.0008954392
0.226,0.0009012636
0.227,0.0009095404
0.228,0.0009175107
0.229,0.0009224154
0.23,0.0009309988
0.231,0.0009377429
0.232,0.0009438738
0.233,0.0009524572
0.234,0.0009582816
0.235,0.0009653322
0.236,0.0009729959
0.237,0.0009779007
0.238,0.0009861775
0.239,0.0009923084
0.24,0.0009981329
0.241,0.001005796
0.242,0.001011008
0.243,0.001018365
0.244,0.001025416
0.245,0.001029707
0.246,0.001036758
0.247,0.001041969
0.248,0.001046261
0.249,0.001054231
0.25,0.001057297
0.251,0.00106496
0.252,0.001071704
0.253,0.00107477
0.254,0.001082127
0.255,0.001087338
0.256,0.001093469
0.257,0.0010996
0.258,0.001104199
0.259,0.001109103
0.26,0.001115847
0.261,0.001117993
0.262,0.001124737
0.263,0.001129642
0.264,0.001132708
0.265,0.001140065
0.266,0.00114313
0.267,0.001147728
0.268,0.001154779
0.269,0.001158458
0.27,0.001164282
0.271,0.00116888
0.272,0.001171946
0.273,0.001178077
0.274,0.001181755
0.275,0.00118758
0.276,0.001194324
0.277,0.001195856
0.278,0.001201681
0.279,0.001207505
0.28,0.001209651
0.281,0.001216702
0.282,0.001220687
0.283,0.001225592
0.284,0.001233562
0.285,0.001236627
0.286,0.001242452
0.287,0.001250728
0.288,0.001253794
0.289,0.001262991
0.29,0.001269428
0.291,0.001273413
0.292,0.001284755
0.293,0.001289354
0.294,0.001297937
0.295,0.00130836
0.296,0.001313571
0.297,0.0013243
0.298,0.001334416
0.299,0.001341467
0.3,0.001356794
0.301,0.001365684
0.302,0.001377027
0.303,0.00139266
0.304,0.001401857
0.305,0.001419024
0.306,0.001434964
0.307,0.001452437
0.308,0.001473283
0.309,0.00148861
0.31,0.001507003
0.311,0.001530607
0.312,0.001548694
0.313,0.001575363
0.314,0.00160142
0.315,0.001625024
0.316,0.001658131
0.317,0.001685107
0.318,0.001716375
0.319,0.001754694
0.32,0.001788721
0.321,0.001831944
0.322,0.001875167
0.323,0.001918697
0.324,0.001975715
0.325,0.002029668
0.326,0.00209435
0.327,0.002172519
0.328,0.002253448
0.329,0.002357675
0.33,0.002479681
0.331,0.002619467
0.332,0.002794506
0.333,0.002988244
0.334,0.003246463
0.335,0.003503963
0.336,0.003782922
0.337,0.004095601
0.338,0.004429739
0.339,0.004779204
0.34,0.005153193
0.341,0.005536378
0.342,0.005934891
0.343,0.006351797
0.344,0.006765637
0.345,0.007200935
0.346,0.007645431
0.347,0.008086859
0.348,0.008546682
0.349,0.009000373
0.35,0.009463261
0.351,0.00993841
0.352,0.01040743
0.353,0.01088871
0.354,0.01136999
0.355,0.01185127
0.356,0.01235094
0.357,0.01283836
0.358,0.01333497
0.359,0.01384384
0.36,0.01433125
0.361,0.01483705
0.362,0.01533979
0.363,0.01583027
0.364,0.01633914
0.365,0.01683881
0.366,0.01733542
0.367,0.01784429
0.368,0.01833783
0.369,0.01884057
0.37,0.01934638
0.371,0.01983992
0.372,0.02034573
0.373,0.02084233
0.374,0.02134201
0.375,0.02184168
0.376,0.02234135
0.377,0.02284103
0.378,0.0233407
0.379,0.02384038
0.38,0.02433392
0.381,0.02483359
0.382,0.02533326
0.383,0.02582681
0.384,0.02632342
0.385,0.02682002
0.386,0.02731357
0.387,0.02781017
0.388,0.02830372
0.389,0.0287942
0.39,0.02929387
0.391,0.02978434
0.392,0.03027482
0.393,0.03154498
0.394,0.03203546
0.395,0.03252594
0.396,0.03301642
0.397,0.03350689
0.398,0.03399737
0.399,0.03448785
0.4,0.03497833
0.401,0.0354688
0.402,0.03595928
0.403,0.03644976
0.404,0.03694023
0.405,0.03743071
0.406,0.03792119
0.407,0.03841167
0.408,0.03884083
0.409,0.03936196
0.41,0.03985244
0.411,0.04031226
0.412,0.04083339
0.413,0.04126256
0.414,0.04175304
0.415,0.04224352
0.416,0.04267269
0.417,0.04316316
0.418,0.04362299
0.419,0.04405215
0.42,0.04454263
0.421,0.0449718
0.422,0.04540097
0.423,0.04589145
0.424,0.04628995
0.425,0.04674978
0.426,0.04717895
0.427,0.04760811
0.428,0.04803728
0.429,0.04843579
0.43,0.04886496
0.431,0.04926347
0.432,0.04960068
0.433,0.04999919
0.434,0.05036705
0.435,0.05070425
0.436,0.05107211
0.437,0.051348
0.438,0.05165455
0.439,0.0519611
0.44,0.05220634
0.441,0.05251288
0.442,0.05272747
0.443,0.0529114
0.444,0.05312598
0.445,0.05327926
0.446,0.05340188
0.447,0.05352449
0.448,0.05355515
0.449,0.0535858
0.45,0.05355515
0.451,0.05349384
0.452,0.05337122
0.453,0.05321795
0.454,0.0529727
0.455,0.05269681
0.456,0.05235961
0.457,0.05193045
0.458,0.05143997
0.459,0.05082687
0.46,0.05012181
0.461,0.04932478
0.462,0.04843579
0.463,0.04736288
0.464,0.04619799
0.465,0.04487984
0.466,0.04346971
0.467,0.04196763
0.468,0.04034292
0.469,0.03868756
0.47,0.03700154
0.471,0.03525422
0.472,0.03359886
0.473,0.0319435
0.474,0.03031879
0.475,0.02878605
0.476,0.02734527
0.477,0.0259658
0.478,0.0246783
0.479,0.02345211
0.48,0.02231788
0.481,0.02127562
0.482,0.02029466
0.483,0.01937502
0.484,0.01854734
0.485,0.01778097
0.486,0.01704525
0.487,0.0164015
0.488,0.0157884
0.489,0.01523662
0.49,0.01471548
0.491,0.01422501
0.492,0.01379584
0.493,0.01336667
0.494,0.01250728
0.495,0.01218234
0.496,0.0118758
0.497,0.0115999
0.498,0.01135773
0.499,0.01113395
0.5,0.01093776
0.501,0.01075383
0.502,0.01059136
0.503,0.01045341
0.504,0.0103216
0.505,0.01020817
0.506,0.01011621
0.507,0.01003038
0.508,0.009962935
0.509,0.009907756
0.51,0.009858709
0.511,0.009818858
0.512,0.00980353
0.513,0.009779006
0.514,0.009769809
0.515,0.009769809
0.516,0.009772875
0.517,0.009782071
0.518,0.009797399
0.519,0.009821923
0.52,0.009849512
0.521,0.009880167
0.522,0.009916953
0.523,0.00995987
0.524,0.01000279
0.525,0.0100457
0.526,0.01011008
0.527,0.01015606
0.528,0.01021124
0.529,0.01028481
0.53,0.01033386
0.531,0.0104013
0.532,0.01046261
0.533,0.01051472
0.534,0.01058523
0.535,0.0106496
0.536,0.01071398
0.537,0.01079368
0.538,0.01085499
0.539,0.0109255
0.54,0.01101133
0.541,0.01107571
0.542,0.01115541
0.543,0.01123818
0.544,0.01131175
0.545,0.01140371
0.546,0.01149261
0.547,0.01157538
0.548,0.0116796
0.549,0.0117685
0.55,0.01186966
0.551,0.01197696
0.552,0.01207199
0.553,0.01218541
0.554,0.01229883
0.555,0.01240612
0.556,0.01253181
0.557,0.01265749
0.558,0.01277705
0.559,0.01290886
0.56,0.01304068
0.561,0.0131725
0.562,0.01331351
0.563,0.01346065
0.564,0.01360473
0.565,0.01375494
0.566,0.01390821
0.567,0.01406455
0.568,0.01422396
0.569,0.01438643
0.57,0.01455503
0.571,0.01472363
0.572,0.0148953
0.573,0.01507003
0.574,0.01525089
0.575,0.01542562
0.576,0.01561875
0.577,0.01580881
0.578,0.01598967
0.579,0.01619506
0.58,0.01639432
0.581,0.01658438
0.582,0.01679589
0.583,0.01700128
0.584,0.0172036
0.585,0.01741819
0.586,0.01762971
0.587,0.01784122
0.588,0.01806194
0.589,0.01827652
0.59,0.01850643
0.591,0.01872408
0.592,0.01895093
0.593,0.01918697
0.594,0.01941382
0.595,0.01964373
0.596,0.01988897
0.597,0.02012194
0.598,0.02035799
0.599,0.02061549
0.6,0.02084846
0.601,0.02110596
0.602,0.02136347
0.603,0.02160257
0.604,0.02186927
0.605,0.02210531
0.606,0.02237201
0.607,0.02262951
0.608,0.02288088
0.609,0.0231629
0.61,0.0234204
0.611,0.02369017
0.612,0.02397219
0.613,0.02422663
0.614,0.02451478
0.615,0.02478761
0.616,0.02505431
0.617,0.02534553
0.618,0.02560916
0.619,0.02589425
0.62,0.0261824
0.621,0.0264583
0.622,0.02676178
0.623,0.0270438
0.624,0.02733196
0.625,0.02764157
0.626,0.02791747
0.627,0.02821175
0.628,0.0285183
0.629,0.02880033
0.63,0.02910687
0.631,0.02941342
0.632,0.02970464
0.633,0.03002039
0.634,0.03108516
0.635,0.03139171
0.636,0.03169826
0.637,0.03200481
0.638,0.03231135
0.639,0.03264856
0.64,0.03295511
0.641,0.03326165
0.642,0.03359886
0.643,0.03390541
0.644,0.03424261
0.645,0.03454916
0.646,0.03488636
0.647,0.03522356
0.648,0.03553011
0.649,0.03586731
0.65,0.03620452
0.651,0.03651107
0.652,0.03684827
0.653,0.03718547
0.654,0.03752267
0.655,0.03785988
0.656,0.03819708
0.657,0.03853428
0.658,0.03890214
0.659,0.03923934
0.66,0.03957655
0.661,0.03991375
0.662,0.04025095
0.663,0.04058816
0.664,0.04095602
0.665,0.04129322
0.666,0.04166108
0.667,0.04199828
0.668,0.04233548
0.669,0.04270334
0.67,0.0430712
0.671,0.0434084
0.672,0.0437456
0.673,0.04411346
0.674,0.04445067
0.675,0.04481852
0.676,0.04518638
0.677,0.04552358
0.678,0.04589145
0.679,0.0462593
0.68,0.0465965
0.681,0.04699502
0.682,0.04733222
0.683,0.04770008
0.684,0.04809859
0.685,0.04843579
0.686,0.04880365
0.687,0.04917151
0.688,0.04953937
0.689,0.04990723
0.69,0.05024443
0.691,0.05067359
0.692,0.05098015
0.693,0.05131735
0.694,0.05177717
0.695,0.05208372
0.696,0.05245158
0.697,0.0529114
0.698,0.05321795
0.699,0.05361646
0.7,0.05367777
0.6990001,0.05315664
0.6980001,0.05275812
0.6970001,0.05232896
0.6960001,0.05193045
0.6950001,0.05153193
0.6940001,0.05110276
0.6930001,0.05073491
0.6920001,0.05033639
0.6910001,0.04993788
0.6900001,0.04957002
0.6890001,0.04917151
0.6880001,0.048773
0.6870001,0.04837449
0.6860001,0.04800662
0.6850001,0.04760811
0.6840001,0.0472096
0.6830001,0.04684174
0.6820001,0.04647389
0.6810001,0.04604472
0.6800001,0.04567686
0.6790001,0.045309
0.6780001,0.04491049
0.6770001,0.04451197
0.6760001,0.04414412
0.6750001,0.04377626
0.6740001,0.04337775
0.6730001,0.04300989
0.6720001,0.04264203
0.6710001,0.04227417
0.6700001,0.04187566
0.6690001,0.0415078
0.6680001,0.0411706
0.6670001,0.04077209
0.6660001,0.04040423
0.6650001,0.04006703
0.6640001,0.03966851
0.6630001,0.03930065
0.6620001,0.03896345
0.6610001,0.03856494
0.6600001,0.03822774
0.6590001,0.03785988
0.6580001,0.03746137
0.6570001,0.03715482
0.6560001,0.03678696
0.6550001,0.03638845
0.6540001,0.03605124
0.6530001,0.03571404
0.6520001,0.03534618
0.6510001,0.03500898
0.6500001,0.03467178
0.6490001,0.03430392
0.6480001,0.03396672
0.6470001,0.03362951
0.6460001,0.03326165
0.6450001,0.03292445
0.6440001,0.03258725
0.6430001,0.03225004
0.6420001,0.03191284
0.6410001,0.03157564
0.6400001,0.03126909
0.6390001,0.03090123
0.6380001,0.03056403
0.6370001,0.03022683
0.6360001,0.02988962
0.6350001,0.02955242
0.6340001,0.02921522
0.6330001,0.02890867
0.6320001,0.02857147
0.6310001,0.02823426
0.6300001,0.02792772
0.6290001,0.02759051
0.6280001,0.02728396
0.6270001,0.02697741
0.6260001,0.02664021
0.6250001,0.02633366
0.6240001,0.02602712
0.6230001,0.02568991
0.6220001,0.02538336
0.6210001,0.02507682
0.6200001,0.02477027
0.6190001,0.02446372
0.6180001,0.02415717
0.6170001,0.02388128
0.6160001,0.02354407
0.6150001,0.02323752
0.6140001,0.02296163
0.6130001,0.02265508
0.6120001,0.02234854
0.6110001,0.02207264
0.6100001,0.02176609
0.6090001,0.02145955
0.6080001,0.02118365
0.6070001,0.02090776
0.6060001,0.02063187
0.6050001,0.02032532
0.6040001,0.02004942
0.6030001,0.01974287
0.6020001,0.01949764
0.6010001,0.01922174
0.6000001,0.0189152
0.5990001,0.01866996
0.5980001,0.01842472
0.5970001,0.01811817
0.5960001,0.01787293
0.5950001,0.01759704
0.5940001,0.01732115
0.5930001,0.01707591
0.5920001,0.01680001
0.5910001,0.01655477
0.5900001,0.01630954
0.5890001,0.01603364
0.5880001,0.0157884
0.5870001,0.01554316
0.5860001,0.01529793
0.5850001,0.01505269
0.5840001,0.01480745
0.5830001,0.01453156
0.5820001,0.01431697
0.5810001,0.01407173
0.5800001,0.01382649
0.5790001,0.01361191
0.5780001,0.01336667
0.5770001,0.0126391
0.5760001,0.01242452
0.5750001,0.01219461
0.5740001,0.01198002
0.5730001,0.01176237
0.5720001,0.01153859
0.5710001,0.01133321
0.5700001,0.01111556
0.5690001,0.01090097
0.5680001,0.01069865
0.5670001,0.0104902
0.5660001,0.01028481
0.5650001,0.01008249
0.5640001,0.009886298
0.5630001,0.009693173
0.5620001,0.009487785
0.5610001,0.009297726
0.5600001,0.009113796
0.5590001,0.008917606
0.5580001,0.008727546
0.5570001,0.008546682
0.5560001,0.008359687
0.5550001,0.008178824
0.5540001,0.008004092
0.5530001,0.007829359
0.5520001,0.007654627
0.5510001,0.007479894
0.5500001,0.007311293
0.5490001,0.007145756
0.5480001,0.006977155
0.5470001,0.006814685
0.5460001,0.006652214
0.5450001,0.006492809
0.5440001,0.006336469
0.5430001,0.006183195
0.5420001,0.006026856
0.5410001,0.005876646
0.5400001,0.005729503
0.5390001,0.005582361
0.5380001,0.005435218
0.5370001,0.00529727
0.5360001,0.005156258
0.5350001,0.005012181
0.5340001,0.004880365
0.5330001,0.004742418
0.5320001,0.004607537
0.5310001,0.004478787
0.5300001,0.004346971
0.5290001,0.004221286
0.5280001,0.004098667
0.5270001,0.003969917
0.5260001,0.003853428
0.5250001,0.003727744
0.5240001,0.00360819
0.5230001,0.003494767
0.5220001,0.003378279
0.5210001,0.003267921
0.5200001,0.003157564
0.5190001,0.003044141
0.5180001,0.002936849
0.5170001,0.002832623
0.5160001,0.002725331
0.5150001,0.00262417
0.5140001,0.002519943
0.5130001,0.002421848
0.5120001,0.002317622
0.5110001,0.002219526
0.5100001,0.002124496
0.5090001,0.002032532
0.5080001,0.001940567
0.5070001,0.001851668
0.5060001,0.001762769
0.5050001,0.001670805
0.5040001,0.001588037
0.5030001,0.001499138
0.5020001,0.00141637
0.5010001,0.001333602
0.5000001,0.001247768
0.4990001,0.001137612
0.4980001,0.001056683
0.4970001,0.0009791269
0.4960001,0.0009055553
0.4950001,0.0008246265
0.4940001,0.0007522812
0.4930001,0.0006777899
0.4920001,0.0006011529
0.4910001,0.0005340188
0.4900001,0.0004613668
0.4890001,0.0003905542
0.4880001,0.0003243398
0.4870001,0.0002541402
0.4860001,0.0001888454
0.4850001,0.0001238572
0.4840001,5.73362E-05
0.4830001,-9.747067E-06
0.4820001,-7.41222E-05
0.4810001,-0.0001356771
0.4800001,-0.0001966189
0.4790001,-0.0002605342
0.4780001,-0.000317123
0.4770001,-0.00037551
0.4760001,-0.0004362065
0.4750001,-0.0004895459
0.4740001,-0.0005474835
0.4730001,-0.0006051146
0.4720001,-0.0006572278
0.4710001,-0.0007139393
0.4700001,-0.0007666656
0.4690001,-0.0008196984
0.4680001,-0.0008727313
0.4670001,-0.0009220855
0.4660001,-0.0009757315
0.4650001,-0.001024779
0.4640001,-0.001070761
0.4630001,-0.001122875
0.4620001,-0.001167937
0.4610001,-0.001216065
0.4600001,-0.001266339
0.4590001,-0.001307417
0.4580001,-0.001352786
0.4570001,-0.001397235
0.4560001,-0.001438313
0.4550001,-0.001482762
0.4540001,-0.001524759
0.4530001,-0.001565837
0.4520001,-0.001606914
0.4510001,-0.001644313
0.4500001,-0.001685084
0.4490001,-0.001722177
0.4480001,-0.001759575
0.4470001,-0.00180096
0.4460001,-0.0018356
0.4450001,-0.001870546
0.4440001,-0.001909171
0.4430001,-0.001941665
0.4420001,-0.001977531
0.4410001,-0.002012784
0.4400001,-0.002044972
0.4390001,-0.002079305
0.4380001,-0.002109654
0.4370001,-0.002142148
0.4360001,-0.002175255
0.4350001,-0.002200698
0.4340001,-0.002233806
0.4330001,-0.002264154
0.4320001,-0.002290823
0.4310001,-0.002323931
0.4300001,-0.002351213
0.4290001,-0.002379416
0.4280001,-0.002411297
0.4270001,-0.002436127
0.4260001,-0.00246341
0.4250001,-0.002491
0.4240001,-0.002516443
0.4230001,-0.002544032
0.4220001,-0.002568863
0.4210001,-0.002594613
0.4200001,-0.002620363
0.4190001,-0.002641515
0.4180001,-0.002666958
0.4170001,-0.002690869
0.4160001,-0.002712327
0.4150001,-0.002737771
0.4140001,-0.002756777
0.4130001,-0.002778848
0.4120001,-0.002803066
0.4110001,-0.002821152
0.4100001,-0.002849354
0.4090001,-0.002877557
0.4080001,-0.00289595
0.4070001,-0.002916795
0.4060001,-0.002933349
0.4050001,-0.002953581
0.4040001,-0.00297412
0.4030001,-0.00299098
0.4020001,-0.003012438
0.4010001,-0.00299486
0.4000001,-0.003010187
0.3990001,-0.003034711
0.3980001,-0.003050038
0.3970001,-0.003071497
0.3960001,-0.003096021
0.3950001,-0.003111348
0.3940001,-0.003132806
0.3930001,-0.003154265
0.3920001,-0.003172658
0.3910001,-0.003197182
0.3900001,-0.00321864
0.3890001,-0.003240098
0.3880001,-0.003264622
0.3870001,-0.003283015
0.3860001,-0.003307539
0.3850001,-0.003328997
0.3840001,-0.00334739
0.3830001,-0.003374979
0.3820001,-0.003390307
0.3810001,-0.003414831
0.3800001,-0.003445486
0.3790001,-0.003460813
0.3780001,-0.003485337
0.3770001,-0.003515992
0.3760001,-0.00353745
0.3750001,-0.003561974
0.3740001,-0.003586498
0.3730001,-0.003611021
0.3720001,-0.00363248
0.3710001,-0.003657004
0.3700001,-0.003684593
0.3690001,-0.003702986
0.3680001,-0.003724444
0.3670001,-0.003752034
0.3660001,-0.003770427
0.3650001,-0.003794951
0.3640001,-0.00382254
0.3630001,-0.003837867
0.3620001,-0.003865457
0.3610001,-0.00388998
0.3600001,-0.003908373
0.3590001,-0.003935963
