EXPID. 0499
[电化学]: CV : 0 >> 0.7 >> 0 >> 0(V) @ 0.01(V/s) X 10(Seg)
起始电位 (V),0
上限电位 (V),0.7
下限电位 (V),0
终止电位 (V),0
扫速 (V/s),0.01
电解液 信息:
KOH,1
0.001,4.135453E-05
0.002,4.288727E-05
0.003,4.402149E-05
0.004,4.503311E-05
0.005,4.59221E-05
0.006,4.678043E-05
0.007,4.770008E-05
0.008,4.84971E-05
0.009,4.938609E-05
0.01,5.027508E-05
0.011,5.098014E-05
0.012,5.177717E-05
0.013,5.248223E-05
0.014,5.327925E-05
0.015,5.422956E-05
0.016,5.502658E-05
0.017,5.57623E-05
0.018,5.658998E-05
0.019,5.729503E-05
0.02,5.812272E-05
0.021,5.89504E-05
0.022,5.977807E-05
0.023,6.069772E-05
0.024,6.15254E-05
0.025,6.226111E-05
0.026,6.305814E-05
0.027,6.37632E-05
0.028,6.477482E-05
0.029,6.56638E-05
0.03,6.658345E-05
0.031,6.747244E-05
0.032,6.833077E-05
0.033,6.91891E-05
0.034,7.013941E-05
0.035,7.093643E-05
0.036,7.191739E-05
0.037,7.295965E-05
0.038,7.400192E-05
0.039,7.504418E-05
0.04,7.593317E-05
0.041,7.694478E-05
0.042,7.795639E-05
0.043,7.8968E-05
0.044,8.001026E-05
0.045,8.114449E-05
0.046,8.234003E-05
0.047,8.359687E-05
0.048,8.470045E-05
0.049,8.589599E-05
0.05,8.706087E-05
0.051,8.831772E-05
0.052,8.966653E-05
0.053,9.089272E-05
0.054,9.218023E-05
0.055,9.368231E-05
0.056,9.503113E-05
0.057,9.665583E-05
0.058,9.828054E-05
0.059,9.95987E-05
0.06,0.000101438
0.061,0.0001030014
0.062,0.0001046261
0.063,0.0001063734
0.064,0.000108182
0.065,0.0001100213
0.066,0.0001119219
0.067,0.0001139145
0.068,0.0001160603
0.069,0.0001181449
0.07,0.0001204133
0.071,0.0001229577
0.072,0.0001252261
0.073,0.0001276478
0.074,0.0001302228
0.075,0.0001327672
0.076,0.0001356488
0.077,0.0001383464
0.078,0.0001413199
0.079,0.0001446
0.08,0.0001477574
0.081,0.0001510681
0.082,0.0001545321
0.083,0.0001579961
0.084,0.0001618586
0.085,0.0001657825
0.086,0.0001698595
0.087,0.0001741206
0.088,0.0001783509
0.089,0.0001829185
0.09,0.0001877313
0.091,0.0001926361
0.092,0.0001979394
0.093,0.00020312
0.094,0.0002084233
0.095,0.0002144623
0.096,0.0002204094
0.097,0.0002266936
0.098,0.0002333457
0.099,0.0002397219
0.1,0.0002470484
0.101,0.0002541297
0.102,0.0002617321
0.103,0.0002700089
0.104,0.0002781017
0.105,0.0002863785
0.106,0.0002954217
0.107,0.0003080927
0.108,0.0003175957
0.109,0.0003274052
0.11,0.0003375213
0.111,0.000347944
0.112,0.0003592863
0.113,0.0003706285
0.114,0.0003825839
0.115,0.0003948459
0.116,0.0004080274
0.117,0.0004209024
0.118,0.0004343906
0.119,0.0004487984
0.12,0.0004628996
0.121,0.0004785335
0.122,0.000494474
0.123,0.000510108
0.124,0.0005275813
0.125,0.0005450545
0.126,0.0005625277
0.127,0.0005818403
0.128,0.0006005398
0.129,0.0006201588
0.13,0.0006413106
0.131,0.000662156
0.132,0.000684534
0.133,0.0007072185
0.134,0.0007305162
0.135,0.0007556532
0.136,0.0007807901
0.137,0.0008068467
0.138,0.0008344361
0.139,0.0008620254
0.14,0.0008917606
0.141,0.0009218023
0.142,0.0009524572
0.143,0.0009855644
0.144,0.001018672
0.145,0.001053312
0.146,0.001089484
0.147,0.001126883
0.148,0.001166121
0.149,0.001205666
0.15,0.001247357
0.151,0.001291193
0.152,0.001335336
0.153,0.001383157
0.154,0.001431592
0.155,0.001480946
0.156,0.001535205
0.157,0.001588238
0.158,0.001643723
0.159,0.0017035
0.16,0.001762971
0.161,0.001825507
0.162,0.001891721
0.163,0.001957322
0.164,0.002027828
0.165,0.002099867
0.166,0.002173746
0.167,0.002251302
0.168,0.002329779
0.169,0.002411627
0.17,0.002497154
0.171,0.002582681
0.172,0.002673419
0.173,0.002764464
0.174,0.002857961
0.175,0.002955444
0.176,0.003087058
0.177,0.003185153
0.178,0.003286314
0.179,0.00339054
0.18,0.003500898
0.181,0.003605124
0.182,0.003715482
0.183,0.00383197
0.184,0.003945393
0.185,0.004064947
0.186,0.0041845
0.187,0.004304054
0.188,0.004429739
0.189,0.004555424
0.19,0.004681109
0.191,0.004812925
0.192,0.00494474
0.193,0.005076556
0.194,0.005214503
0.195,0.005352449
0.196,0.005496527
0.197,0.005637539
0.198,0.005784682
0.199,0.005934891
0.2,0.006082034
0.201,0.006241439
0.202,0.006397779
0.203,0.006557184
0.204,0.00672272
0.205,0.006888256
0.206,0.007056858
0.207,0.00723159
0.208,0.007400192
0.209,0.007581055
0.21,0.007764984
0.211,0.007942782
0.212,0.008135907
0.213,0.008322901
0.214,0.008512962
0.215,0.008715284
0.216,0.008911475
0.217,0.009113796
0.218,0.009325314
0.219,0.009533768
0.22,0.009745286
0.221,0.00995987
0.222,0.01018365
0.223,0.01039823
0.224,0.01062814
0.225,0.01085499
0.226,0.01107877
0.227,0.01131481
0.228,0.01155085
0.229,0.01178996
0.23,0.0120352
0.231,0.01227124
0.232,0.01251955
0.233,0.01276785
0.234,0.01301002
0.235,0.01326753
0.236,0.01352196
0.237,0.0137672
0.238,0.01403389
0.239,0.0142914
0.24,0.0145397
0.241,0.01481253
0.242,0.01507003
0.243,0.01532753
0.244,0.01560649
0.245,0.01586399
0.246,0.01612762
0.247,0.01640658
0.248,0.01666408
0.249,0.01693384
0.25,0.0172128
0.251,0.01747643
0.252,0.01774619
0.253,0.01802515
0.254,0.01829185
0.255,0.01856468
0.256,0.0188467
0.257,0.01911647
0.258,0.01938929
0.259,0.01967132
0.26,0.01994108
0.261,0.02021391
0.262,0.02049593
0.263,0.02076263
0.264,0.02103852
0.265,0.02132055
0.266,0.02158418
0.267,0.02186314
0.268,0.02214823
0.269,0.02240573
0.27,0.02268775
0.271,0.02296978
0.272,0.02322728
0.273,0.02350624
0.274,0.0237852
0.275,0.0240427
0.276,0.02432165
0.277,0.02459755
0.278,0.02485505
0.279,0.02513094
0.28,0.02540377
0.281,0.02566127
0.282,0.02592797
0.283,0.02619773
0.284,0.02645523
0.285,0.02672193
0.286,0.02698863
0.287,0.02724
0.288,0.02750669
0.289,0.02777339
0.29,0.02801556
0.291,0.02827919
0.292,0.02853976
0.293,0.0287758
0.294,0.0290425
0.295,0.0293
0.296,0.02952685
0.297,0.02979048
0.298,0.03004185
0.299,0.03105451
0.3,0.03129975
0.301,0.03154498
0.302,0.03175957
0.303,0.03203546
0.304,0.03225004
0.305,0.03246463
0.306,0.03270987
0.307,0.03295511
0.308,0.03316969
0.309,0.03341493
0.31,0.03366017
0.311,0.03384409
0.312,0.03408933
0.313,0.03430392
0.314,0.03448785
0.315,0.03473309
0.316,0.03494767
0.317,0.0351316
0.318,0.03534618
0.319,0.03556077
0.32,0.03574469
0.321,0.03595928
0.322,0.03614321
0.323,0.03629648
0.324,0.03651107
0.325,0.036695
0.326,0.03684827
0.327,0.03706285
0.328,0.03721613
0.329,0.0373694
0.33,0.03755333
0.331,0.03770661
0.332,0.03785988
0.333,0.03804381
0.334,0.03819708
0.335,0.03835035
0.336,0.03850363
0.337,0.03862625
0.338,0.03874887
0.339,0.03890214
0.34,0.03902476
0.341,0.03914738
0.342,0.03930065
0.343,0.03939262
0.344,0.03948459
0.345,0.03963786
0.346,0.03972982
0.347,0.03982178
0.348,0.03994441
0.349,0.04000572
0.35,0.04009768
0.351,0.04018965
0.352,0.04025095
0.353,0.04031226
0.354,0.04040423
0.355,0.04046554
0.356,0.04052685
0.357,0.04061881
0.358,0.04064947
0.359,0.04071078
0.36,0.04077209
0.361,0.04083339
0.362,0.04086405
0.363,0.04092536
0.364,0.04095602
0.365,0.04101732
0.366,0.04107863
0.367,0.04107863
0.368,0.04113995
0.369,0.04120126
0.37,0.04120126
0.371,0.04126256
0.372,0.04132387
0.373,0.04135453
0.374,0.04138518
0.375,0.04144649
0.376,0.04147715
0.377,0.0415078
0.378,0.04159977
0.379,0.04163042
0.38,0.04169173
0.381,0.0417837
0.382,0.04181435
0.383,0.04187566
0.384,0.04193697
0.385,0.04199828
0.386,0.04205959
0.387,0.0421209
0.388,0.04215155
0.389,0.04224352
0.39,0.04230483
0.391,0.04230483
0.392,0.04236614
0.393,0.04242745
0.394,0.04242745
0.395,0.0424581
0.396,0.04251941
0.397,0.0424581
0.398,0.04248876
0.399,0.0424581
0.4,0.0423968
0.401,0.04233548
0.402,0.04227417
0.403,0.04215155
0.404,0.04202893
0.405,0.04187566
0.406,0.04163042
0.407,0.04141584
0.408,0.04113995
0.409,0.04080274
0.41,0.04043488
0.411,0.04003637
0.412,0.03951524
0.413,0.03896345
0.414,0.0383197
0.415,0.03755333
0.416,0.03678696
0.417,0.03589797
0.418,0.03488636
0.419,0.03381344
0.42,0.03267921
0.421,0.03142237
0.422,0.03022683
0.423,0.02900063
0.424,0.02777444
0.425,0.02667087
0.426,0.02556729
0.427,0.02449437
0.428,0.02357473
0.429,0.02265508
0.43,0.02176609
0.431,0.02103038
0.432,0.02026401
0.433,0.01955895
0.434,0.0189152
0.435,0.0183021
0.436,0.01771966
0.437,0.01716787
0.438,0.01664674
0.439,0.01615626
0.44,0.01572709
0.441,0.01526727
0.442,0.0148381
0.443,0.01447024
0.444,0.01410239
0.445,0.01373453
0.446,0.01342798
0.447,0.01312143
0.448,0.01231722
0.449,0.01207812
0.45,0.01181755
0.451,0.01156925
0.452,0.01137612
0.453,0.01116154
0.454,0.01096228
0.455,0.01080901
0.456,0.01063734
0.457,0.010481
0.458,0.01036145
0.459,0.01022657
0.46,0.01011008
0.461,0.01002424
0.462,0.009926149
0.463,0.009843381
0.464,0.009788202
0.465,0.009726893
0.466,0.009674779
0.467,0.009659452
0.468,0.009628798
0.469,0.009607339
0.47,0.009622667
0.471,0.009622667
0.472,0.009634929
0.473,0.009683976
0.474,0.00971463
0.475,0.009757548
0.476,0.009840316
0.477,0.00989856
0.478,0.009975197
0.479,0.01008555
0.48,0.01017752
0.481,0.01028481
0.482,0.01041969
0.483,0.01054231
0.484,0.01068026
0.485,0.01084273
0.486,0.01099294
0.487,0.01115847
0.488,0.01134547
0.489,0.01152327
0.49,0.01171332
0.491,0.01192791
0.492,0.0121333
0.493,0.01234481
0.494,0.01258392
0.495,0.0128077
0.496,0.01303761
0.497,0.01330431
0.498,0.01354342
0.499,0.01380092
0.5,0.01408601
0.501,0.01434044
0.502,0.01461634
0.503,0.01491675
0.504,0.01518652
0.505,0.0154808
0.506,0.01579961
0.507,0.01608777
0.508,0.01639738
0.509,0.01672539
0.51,0.01703194
0.511,0.01735075
0.512,0.01770021
0.513,0.01801902
0.514,0.01835009
0.515,0.01870569
0.516,0.01903983
0.517,0.01937703
0.518,0.01974489
0.519,0.02008822
0.52,0.02043769
0.521,0.02081474
0.522,0.02116727
0.523,0.02152594
0.524,0.02191525
0.525,0.02227391
0.526,0.02264177
0.527,0.02304029
0.528,0.02340201
0.529,0.02378213
0.53,0.02418064
0.531,0.0245577
0.532,0.02494701
0.533,0.02535166
0.534,0.02572871
0.535,0.02612416
0.536,0.026538
0.537,0.02692425
0.538,0.0273197
0.539,0.02774273
0.54,0.02813512
0.541,0.02853363
0.542,0.02896586
0.543,0.02936438
0.544,0.02976902
0.545,0.03020738
0.546,0.03139171
0.547,0.03179022
0.548,0.03221939
0.549,0.03264856
0.55,0.03304707
0.551,0.03350689
0.552,0.03393606
0.553,0.03436523
0.554,0.0347944
0.555,0.03522356
0.556,0.03565273
0.557,0.03611255
0.558,0.03654172
0.559,0.03697089
0.56,0.03743071
0.561,0.03785988
0.562,0.0383197
0.563,0.03877952
0.564,0.03920869
0.565,0.03963786
0.566,0.04012834
0.567,0.0405575
0.568,0.04098667
0.569,0.04147715
0.57,0.04190632
0.571,0.04236614
0.572,0.04282596
0.573,0.04328578
0.574,0.04371495
0.575,0.04420543
0.576,0.04466525
0.577,0.04509442
0.578,0.04558489
0.579,0.04604472
0.58,0.04650454
0.581,0.04699502
0.582,0.04742418
0.583,0.04788401
0.584,0.04837449
0.585,0.04883431
0.586,0.04929413
0.587,0.0497846
0.588,0.05021377
0.589,0.05067359
0.59,0.05119473
0.591,0.05162389
0.592,0.05208372
0.593,0.05260485
0.594,0.05303402
0.595,0.05352449
0.596,0.05404563
0.597,0.0544748
0.598,0.05493462
0.599,0.05545575
0.6,0.05591557
0.601,0.05637539
0.602,0.05689653
0.603,0.05735635
0.604,0.05781617
0.605,0.0583373
0.606,0.05876647
0.607,0.05925695
0.608,0.05977808
0.609,0.0602379
0.61,0.06069772
0.611,0.06121886
0.612,0.06167868
0.613,0.06216915
0.614,0.06269029
0.615,0.06315011
0.616,0.06360994
0.617,0.06413107
0.618,0.06459089
0.619,0.06508137
0.62,0.0656025
0.621,0.06603166
0.622,0.06652214
0.623,0.06704327
0.624,0.06750309
0.625,0.06799357
0.626,0.0685147
0.627,0.06897452
0.628,0.069465
0.629,0.06998613
0.63,0.07044595
0.631,0.07093643
0.632,0.07145756
0.633,0.07185608
0.634,0.07240786
0.635,0.07289835
0.636,0.07335817
0.637,0.07384864
0.638,0.07436978
0.639,0.07479894
0.64,0.07532008
0.641,0.07584121
0.642,0.07630103
0.643,0.07679151
0.644,0.07734329
0.645,0.07777246
0.646,0.07829359
0.647,0.07881473
0.648,0.07924389
0.649,0.07976502
0.65,0.08028616
0.651,0.08071532
0.652,0.08123646
0.653,0.08175759
0.654,0.08218676
0.655,0.08270789
0.656,0.08322902
0.657,0.08368885
0.658,0.08420997
0.659,0.08473111
0.66,0.08516028
0.661,0.08571207
0.662,0.08620254
0.663,0.08666236
0.664,0.0871835
0.665,0.08770462
0.666,0.08816445
0.667,0.08868558
0.668,0.08920672
0.669,0.08966654
0.67,0.09018766
0.671,0.0907088
0.672,0.09113797
0.673,0.09168976
0.674,0.09218023
0.675,0.09264006
0.676,0.09319184
0.677,0.09368231
0.678,0.09414214
0.679,0.09472458
0.68,0.09518441
0.681,0.09564423
0.682,0.09622667
0.683,0.09668649
0.684,0.09714631
0.685,0.09772875
0.686,0.09818857
0.687,0.0986484
0.688,0.09920018
0.689,0.09969067
0.69,0.1001811
0.691,0.1007329
0.692,0.1012234
0.693,0.1016832
0.694,0.1022657
0.695,0.1027255
0.696,0.1031853
0.697,0.1037678
0.698,0.1042582
0.699,0.104718
0.7,0.1049326
0.6990001,0.1044115
0.6980001,0.1038904
0.6970001,0.1034612
0.6960001,0.1029707
0.6950001,0.1024496
0.6940001,0.1020204
0.6930001,0.1014993
0.6920001,0.1009782
0.6910001,0.100549
0.6900001,0.1000279
0.6890001,0.09953739
0.6880001,0.09910822
0.6870001,0.09858709
0.6860001,0.09809661
0.6850001,0.09763679
0.6840001,0.09711566
0.6830001,0.09665584
0.6820001,0.09619602
0.6810001,0.09567488
0.6800001,0.09518441
0.6790001,0.09475523
0.6780001,0.0942341
0.6770001,0.09374363
0.6760001,0.09331446
0.6750001,0.09276267
0.6740001,0.09230285
0.6730001,0.09184303
0.6720001,0.09132189
0.6710001,0.09086207
0.6700001,0.09040225
0.6690001,0.08985046
0.6680001,0.08939064
0.6670001,0.08893082
0.6660001,0.08840968
0.6650001,0.08794986
0.6640001,0.08749004
0.6630001,0.08696891
0.6620001,0.08650909
0.6610001,0.08604927
0.6600001,0.08552813
0.6590001,0.08506831
0.6580001,0.08457784
0.6570001,0.08408736
0.6560001,0.08359688
0.6550001,0.08316771
0.6540001,0.08264658
0.6530001,0.08218676
0.6520001,0.08172693
0.6510001,0.08120581
0.6500001,0.08077663
0.6490001,0.08028616
0.6480001,0.07979568
0.6470001,0.07933586
0.6460001,0.07887604
0.6450001,0.0783549
0.6440001,0.07789508
0.6430001,0.07743526
0.6420001,0.07691412
0.6410001,0.0764543
0.6400001,0.07599448
0.6390001,0.07547335
0.6380001,0.07504418
0.6370001,0.07455371
0.6360001,0.07406323
0.6350001,0.07360341
0.6340001,0.07314359
0.6330001,0.07262245
0.6320001,0.07219329
0.6310001,0.07170281
0.6300001,0.07121233
0.6290001,0.07078316
0.6280001,0.07029268
0.6270001,0.06977155
0.6260001,0.06934239
0.6250001,0.06885191
0.6240001,0.06836143
0.6230001,0.06793226
0.6220001,0.06744178
0.6210001,0.0669513
0.6200001,0.06652214
0.6190001,0.06603166
0.6180001,0.06554119
0.6170001,0.06511202
0.6160001,0.06462154
0.6150001,0.06413107
0.6140001,0.0637019
0.6130001,0.06321142
0.6120001,0.06272095
0.6110001,0.06229177
0.6100001,0.0618013
0.6090001,0.06134148
0.6080001,0.06088165
0.6070001,0.06039118
0.6060001,0.05993135
0.6050001,0.05950218
0.6040001,0.05901171
0.6030001,0.05855189
0.6020001,0.05809207
0.6010001,0.05760158
0.6000001,0.05714176
0.5990001,0.0567126
0.5980001,0.05622212
0.5970001,0.0557623
0.5960001,0.05533313
0.5950001,0.05484265
0.5940001,0.05438283
0.5930001,0.05392301
0.5920001,0.05343253
0.5910001,0.05300336
0.5900001,0.05254354
0.5890001,0.05205306
0.5880001,0.05162389
0.5870001,0.05116407
0.5860001,0.05070425
0.5850001,0.05024443
0.5840001,0.04981526
0.5830001,0.04935544
0.5820001,0.04889562
0.5810001,0.04846645
0.5800001,0.04797597
0.5790001,0.0475468
0.5780001,0.04708698
0.5770001,0.04662716
0.5760001,0.04619799
0.5750001,0.04573817
0.5740001,0.04527835
0.5730001,0.04481852
0.5720001,0.04438936
0.5710001,0.04392953
0.5700001,0.04346971
0.5690001,0.04304054
0.5680001,0.04258072
0.5670001,0.04215155
0.5660001,0.04169173
0.5650001,0.04123191
0.5640001,0.04080274
0.5630001,0.04037357
0.5620001,0.03991375
0.5610001,0.03948459
0.5600001,0.03905542
0.5590001,0.03859559
0.5580001,0.03816643
0.5570001,0.03773726
0.5560001,0.03727744
0.5550001,0.03684827
0.5540001,0.0364191
0.5530001,0.03595928
0.5520001,0.03553011
0.5510001,0.03510094
0.5500001,0.03467178
0.5490001,0.03424261
0.5480001,0.03381344
0.5470001,0.03338427
0.5460001,0.03295511
0.5450001,0.03255659
0.5440001,0.03209677
0.5430001,0.0316676
0.5420001,0.03126909
0.5410001,0.03080927
0.5400001,0.03041076
0.5390001,0.02998159
0.5380001,0.02955242
0.5370001,0.02915391
0.5360001,0.02872474
0.5350001,0.02832623
0.5340001,0.02789706
0.5330001,0.02749855
0.5320001,0.02706938
0.5310001,0.02667087
0.5300001,0.02627235
0.5290001,0.02584319
0.5280001,0.02544468
0.5270001,0.02504616
0.5260001,0.02461699
0.5250001,0.02421848
0.5240001,0.02385062
0.5230001,0.02342146
0.5220001,0.02302294
0.5210001,0.02265508
0.5200001,0.02222592
0.5190001,0.02182741
0.5180001,0.02145955
0.5170001,0.02106103
0.5160001,0.02066252
0.5150001,0.02029466
0.5140001,0.01989615
0.5130001,0.01952829
0.5120001,0.01912978
0.5110001,0.01873127
0.5100001,0.01839406
0.5090001,0.01802621
0.5080001,0.01762769
0.5070001,0.01725983
0.5060001,0.01692263
0.5050001,0.01652412
0.5040001,0.01618692
0.5030001,0.01581906
0.5020001,0.0154512
0.5010001,0.015114
0.5000001,0.01474614
0.4990001,0.01437828
0.4980001,0.01404108
0.4970001,0.01370388
0.4960001,0.01333602
0.4950001,0.01250115
0.4940001,0.01217621
0.4930001,0.01183594
0.4920001,0.011511
0.4910001,0.01119526
0.4900001,0.01086419
0.4890001,0.01054844
0.4880001,0.01023883
0.4870001,0.009916953
0.4860001,0.009616536
0.4850001,0.009313053
0.4840001,0.009000373
0.4830001,0.008712218
0.4820001,0.008414866
0.4810001,0.008117515
0.4800001,0.007838556
0.4790001,0.0075504
0.4780001,0.007268376
0.4770001,0.006998613
0.4760001,0.006725786
0.4750001,0.006456023
0.4740001,0.006189326
0.4730001,0.005931825
0.4720001,0.005671259
0.4710001,0.00541989
0.4700001,0.005177717
0.4690001,0.004932478
0.4680001,0.004696436
0.4670001,0.004463459
0.4660001,0.004230483
0.4650001,0.004009768
0.4640001,0.003795184
0.4630001,0.003574469
0.4620001,0.003369082
0.4610001,0.003160629
0.4600001,0.002955242
0.4590001,0.002768247
0.4580001,0.002575122
0.4570001,0.002388128
0.4560001,0.002216461
0.4550001,0.002035597
0.4540001,0.00186393
0.4530001,0.001704525
0.4520001,0.001542055
0.4510001,0.00138878
0.4500001,0.001238572
0.4490001,0.001058829
0.4480001,0.0009178172
0.4470001,0.0007807901
0.4460001,0.0006526529
0.4450001,0.000525742
0.4440001,0.0004040423
0.4430001,0.0002903129
0.4420001,0.0001747442
0.4410001,6.714575E-05
0.4400001,-3.748968E-05
0.4390001,-0.0001393557
0.4380001,-0.0002317493
0.4370001,-0.0003215679
0.4360001,-0.0004104565
0.4350001,-0.0004880132
0.4340001,-0.0005677157
0.4330001,-0.00064282
0.4320001,-0.0007127131
0.4310001,-0.0007829126
0.4300001,-0.0008454485
0.4290001,-0.0009085974
0.4280001,-0.0009680677
0.4270001,-0.001019874
0.4260001,-0.001074747
0.4250001,-0.001122875
0.4240001,-0.001167324
0.4230001,-0.001216065
0.4220001,-0.001256223
0.4210001,-0.001294848
0.4200001,-0.0013347
0.4190001,-0.001365354
0.4180001,-0.001400914
0.4170001,-0.001432182
0.4160001,-0.001458852
0.4150001,-0.001489813
0.4140001,-0.001513724
0.4130001,-0.001536102
0.4120001,-0.001561545
0.4110001,-0.001580551
0.4100001,-0.001607221
0.4090001,-0.001632971
0.4080001,-0.001644926
0.4070001,-0.001660867
0.4060001,-0.001673435
0.4050001,-0.001687537
0.4040001,-0.001701025
0.4030001,-0.001711447
0.4020001,-0.001725549
0.4010001,-0.001733519
0.4000001,-0.001742102
0.3990001,-0.001754977
0.3980001,-0.001759882
0.3970001,-0.001771531
0.3960001,-0.00178318
0.3950001,-0.001785019
0.3940001,-0.001794522
0.3930001,-0.001802186
0.3920001,-0.001803718
0.3910001,-0.001813835
0.3900001,-0.001819046
0.3890001,-0.001821498
0.3880001,-0.001829468
0.3870001,-0.001831921
0.3860001,-0.001836519
0.3850001,-0.001841424
0.3840001,-0.001843263
0.3830001,-0.001848168
0.3820001,-0.001850007
0.3810001,-0.001855219
0.3800001,-0.001858591
0.3790001,-0.001858897
0.3780001,-0.001866561
0.3770001,-0.0018684
0.3760001,-0.001869626
0.3750001,-0.00187637
0.3740001,-0.001875451
0.3730001,-0.001879436
0.3720001,-0.00188526
0.3710001,-0.00188618
0.3700001,-0.001891391
0.3690001,-0.001893537
0.3680001,-0.001892311
0.3670001,-0.001899668
0.3660001,-0.001900588
0.3650001,-0.00190396
0.3640001,-0.001910091
0.3630001,-0.001909784
0.3620001,-0.001914995
0.3610001,-0.001920207
0.3600001,-0.00192174
0.3590001,-0.001928177
0.3580001,-0.001933388
0.3570001,-0.001936454
0.3560001,-0.001941665
0.3550001,-0.001944117
0.3540001,-0.001951168
0.3530001,-0.00195454
0.3520001,-0.001960978
0.3510001,-0.001969868
0.3500001,-0.001971707
0.3490001,-0.001979371
0.3480001,-0.001987954
0.3470001,-0.001991326
0.3460001,-0.002002055
0.3450001,-0.002010945
0.3440001,-0.00201493
0.3430001,-0.002027192
0.3420001,-0.002033017
