EXPID. 0387
[电化学]: CV : 0 >> 0.7 >> 0 >> 0(V) @ 0.01(V/s) X 10(Seg)
起始电位 (V),0
上限电位 (V),0.7
下限电位 (V),0
终止电位 (V),0
扫速 (V/s),0.01
电解液 信息:
KOH,1
0.001,1.860865E-05
0.002,1.912978E-05
0.003,1.949764E-05
0.004,1.99268E-05
0.005,2.023335E-05
0.006,2.05399E-05
0.007,2.08771E-05
0.008,2.112234E-05
0.009,2.139823E-05
0.01,2.167413E-05
0.011,2.195002E-05
0.012,2.219526E-05
0.013,2.247115E-05
0.014,2.265508E-05
0.015,2.293098E-05
0.016,2.317622E-05
0.017,2.33908E-05
0.018,2.369735E-05
0.019,2.385062E-05
0.02,2.415717E-05
0.021,2.43411E-05
0.022,2.458634E-05
0.023,2.480092E-05
0.024,2.501551E-05
0.025,2.516878E-05
0.026,2.547533E-05
0.027,2.568991E-05
0.028,2.593515E-05
0.029,2.611908E-05
0.03,2.630301E-05
0.031,2.651759E-05
0.032,2.679348E-05
0.033,2.697741E-05
0.034,2.7192E-05
0.035,2.734527E-05
0.036,2.759051E-05
0.037,2.777444E-05
0.038,2.798902E-05
0.039,2.823426E-05
0.04,2.835688E-05
0.041,2.851016E-05
0.042,2.875539E-05
0.043,2.890867E-05
0.044,2.912325E-05
0.045,2.930718E-05
0.046,2.946045E-05
0.047,2.967504E-05
0.048,2.988962E-05
0.049,3.016552E-05
0.05,3.041075E-05
0.051,3.062534E-05
0.052,3.087058E-05
0.053,3.102385E-05
0.054,3.123844E-05
0.055,3.142237E-05
0.056,3.160629E-05
0.057,3.172891E-05
0.058,3.197415E-05
0.059,3.206612E-05
0.06,3.234201E-05
0.061,3.246463E-05
0.062,3.267921E-05
0.063,3.292445E-05
0.064,3.316969E-05
0.065,3.335362E-05
0.066,3.366017E-05
0.067,3.38441E-05
0.068,3.405868E-05
0.069,3.424261E-05
0.07,3.442654E-05
0.071,3.470243E-05
0.072,3.47944E-05
0.073,3.500898E-05
0.074,3.525422E-05
0.075,3.540749E-05
0.076,3.565273E-05
0.077,3.577535E-05
0.078,3.592862E-05
0.079,3.617386E-05
0.08,3.638844E-05
0.081,3.660303E-05
0.082,3.678696E-05
0.083,3.703219E-05
0.084,3.730809E-05
0.085,3.761464E-05
0.086,3.779857E-05
0.087,3.801315E-05
0.088,3.822774E-05
0.089,3.841166E-05
0.09,3.862625E-05
0.091,3.881018E-05
0.092,3.905542E-05
0.093,3.923934E-05
0.094,3.939262E-05
0.095,3.966851E-05
0.096,3.988309E-05
0.097,4.009768E-05
0.098,4.040423E-05
0.099,4.061881E-05
0.1,4.095601E-05
0.101,4.120125E-05
0.102,4.141583E-05
0.103,4.172239E-05
0.104,4.187566E-05
0.105,4.209024E-05
0.106,4.233548E-05
0.107,4.255007E-05
0.108,4.282596E-05
0.109,4.310185E-05
0.11,4.325512E-05
0.111,4.356167E-05
0.112,4.380691E-05
0.113,4.411346E-05
0.114,4.448132E-05
0.115,4.478787E-05
0.116,4.512507E-05
0.117,4.537031E-05
0.118,4.561555E-05
0.119,4.59221E-05
0.12,4.616733E-05
0.121,4.644323E-05
0.122,4.674977E-05
0.123,4.699502E-05
0.124,4.736287E-05
0.125,4.766942E-05
0.126,4.797597E-05
0.127,4.840514E-05
0.128,4.874234E-05
0.129,4.91102E-05
0.13,4.941675E-05
0.131,4.975395E-05
0.132,5.012181E-05
0.133,5.048966E-05
0.134,5.073491E-05
0.135,5.116407E-05
0.136,5.150127E-05
0.137,5.193044E-05
0.138,5.248223E-05
0.139,5.281943E-05
0.14,5.330991E-05
0.141,5.370842E-05
0.142,5.404562E-05
0.143,5.450545E-05
0.144,5.48733E-05
0.145,5.530247E-05
0.146,5.57623E-05
0.147,5.631408E-05
0.148,5.689652E-05
0.149,5.7387E-05
0.15,5.781617E-05
0.151,5.83373E-05
0.152,5.879712E-05
0.153,5.937956E-05
0.154,5.983939E-05
0.155,6.029921E-05
0.156,6.094296E-05
0.157,6.15254E-05
0.158,6.21385E-05
0.159,6.287421E-05
0.16,6.339535E-05
0.161,6.400844E-05
0.162,6.468285E-05
0.163,6.520398E-05
0.164,6.590904E-05
0.165,6.655279E-05
0.166,6.713524E-05
0.167,6.796292E-05
0.168,6.863732E-05
0.169,6.934239E-05
0.17,7.020072E-05
0.171,7.096709E-05
0.172,7.179477E-05
0.173,7.262245E-05
0.174,7.338882E-05
0.175,7.42165E-05
0.176,7.504418E-05
0.177,7.587186E-05
0.178,7.676085E-05
0.179,7.771115E-05
0.18,7.881472E-05
0.181,7.970371E-05
0.182,8.062336E-05
0.183,8.166562E-05
0.184,8.255462E-05
0.185,8.362753E-05
0.186,8.485372E-05
0.187,8.592664E-05
0.188,8.715284E-05
0.189,8.831772E-05
0.19,8.939064E-05
0.191,9.064749E-05
0.192,9.181237E-05
0.193,9.313053E-05
0.194,9.460196E-05
0.195,9.592011E-05
0.196,9.733024E-05
0.197,9.870971E-05
0.198,0.0001000892
0.199,0.0001016219
0.2,0.0001030014
0.201,0.0001046874
0.202,0.0001064347
0.203,0.0001079981
0.204,0.0001097761
0.205,0.0001114928
0.206,0.0001131788
0.207,0.0001150181
0.208,0.00011698
0.209,0.0001190032
0.21,0.0001209344
0.211,0.000122927
0.212,0.0001250115
0.213,0.0001270961
0.214,0.0001293645
0.215,0.000131725
0.216,0.0001339321
0.217,0.0001363845
0.218,0.0001387756
0.219,0.0001411973
0.22,0.0001440482
0.221,0.0001466232
0.222,0.0001492595
0.223,0.0001521411
0.224,0.0001548693
0.225,0.0001577816
0.226,0.000160847
0.227,0.0001639125
0.228,0.0001673458
0.229,0.0001705646
0.23,0.0001737221
0.231,0.0001772474
0.232,0.0001808033
0.233,0.0001843593
0.234,0.0001882524
0.235,0.0001921456
0.236,0.0001961614
0.237,0.0002002385
0.238,0.0002043156
0.239,0.0002085766
0.24,0.0002129602
0.241,0.0002176504
0.242,0.0002223713
0.243,0.0002271534
0.244,0.0002321808
0.245,0.0002369936
0.246,0.0002422663
0.247,0.0002478761
0.248,0.0002531794
0.249,0.0002589118
0.25,0.0002647976
0.251,0.0002704074
0.252,0.0002768756
0.253,0.0002831598
0.254,0.000289628
0.255,0.0002965253
0.256,0.0003068665
0.257,0.0003139171
0.258,0.0003209677
0.259,0.0003283249
0.26,0.0003359886
0.261,0.0003439588
0.262,0.0003519291
0.263,0.0003605125
0.264,0.0003687892
0.265,0.0003776792
0.266,0.0003868756
0.267,0.000396072
0.268,0.0004058816
0.269,0.0004156911
0.27,0.0004261138
0.271,0.0004365364
0.272,0.0004469591
0.273,0.0004579948
0.274,0.0004693371
0.275,0.0004809859
0.276,0.0004932479
0.277,0.0005052032
0.278,0.0005177717
0.279,0.0005306468
0.28,0.0005438284
0.281,0.0005579296
0.282,0.0005717242
0.283,0.0005861319
0.284,0.0006014594
0.285,0.0006164802
0.286,0.0006318077
0.287,0.0006486679
0.288,0.0006649149
0.289,0.000681775
0.29,0.0006998614
0.291,0.0007176412
0.292,0.0007366472
0.293,0.0007556532
0.294,0.0007752723
0.295,0.0007961175
0.296,0.0008166563
0.297,0.0008381146
0.298,0.0008607992
0.299,0.0008837904
0.3,0.0009077011
0.301,0.000932225
0.302,0.000957975
0.303,0.0009840317
0.304,0.001011621
0.305,0.001040436
0.306,0.001069865
0.307,0.001102359
0.308,0.001135466
0.309,0.001168574
0.31,0.001205053
0.311,0.001243985
0.312,0.001283223
0.313,0.001327979
0.314,0.001374881
0.315,0.001423315
0.316,0.001479414
0.317,0.001537964
0.318,0.001601726
0.319,0.001674378
0.32,0.001752242
0.321,0.001838995
0.322,0.001936171
0.323,0.002041623
0.324,0.002161177
0.325,0.002291767
0.326,0.002435844
0.327,0.002595556
0.328,0.002769063
0.329,0.002958203
0.33,0.00319435
0.331,0.003415064
0.332,0.003651106
0.333,0.003899411
0.334,0.004169173
0.335,0.004448132
0.336,0.004745483
0.337,0.005055097
0.338,0.005370842
0.339,0.005708045
0.34,0.006054445
0.341,0.006406975
0.342,0.006777898
0.343,0.007151887
0.344,0.007532008
0.345,0.007933586
0.346,0.008335164
0.347,0.008742873
0.348,0.00916591
0.349,0.009585881
0.35,0.01001505
0.351,0.01045648
0.352,0.01089484
0.353,0.01133934
0.354,0.01179303
0.355,0.01224059
0.356,0.01270348
0.357,0.0131633
0.358,0.01362006
0.359,0.01409214
0.36,0.01455503
0.361,0.01501792
0.362,0.01549
0.363,0.01595902
0.364,0.01642191
0.365,0.01689706
0.366,0.01736914
0.367,0.01782896
0.368,0.01830411
0.369,0.0187762
0.37,0.01923295
0.371,0.01971423
0.372,0.02018019
0.373,0.02063695
0.374,0.02111516
0.375,0.02157805
0.376,0.02203174
0.377,0.02250996
0.378,0.02296365
0.379,0.02342653
0.38,0.02389555
0.381,0.02434311
0.382,0.024806
0.383,0.02527196
0.384,0.02571032
0.385,0.02617321
0.386,0.02663303
0.387,0.02706833
0.388,0.02752815
0.389,0.02798184
0.39,0.02841407
0.391,0.02887083
0.392,0.02931839
0.393,0.02975062
0.394,0.03019818
0.395,0.03142237
0.396,0.03185153
0.397,0.0322807
0.398,0.03270987
0.399,0.03313904
0.4,0.03359886
0.401,0.03402802
0.402,0.03442654
0.403,0.03488636
0.404,0.03528487
0.405,0.03571404
0.406,0.03614321
0.407,0.03657238
0.408,0.03697089
0.409,0.03740006
0.41,0.03779857
0.411,0.03819708
0.412,0.0386569
0.413,0.03902476
0.414,0.03942328
0.415,0.03982178
0.416,0.04018965
0.417,0.04058816
0.418,0.04098667
0.419,0.04135453
0.42,0.04172239
0.421,0.04209024
0.422,0.0424581
0.423,0.04282596
0.424,0.04319382
0.425,0.04353102
0.426,0.04386823
0.427,0.04420543
0.428,0.04454263
0.429,0.04487984
0.43,0.04518638
0.431,0.04549293
0.432,0.04579948
0.433,0.04610603
0.434,0.04638192
0.435,0.04668847
0.436,0.04693371
0.437,0.04717895
0.438,0.04745484
0.439,0.04766942
0.44,0.04788401
0.441,0.04809859
0.442,0.04828252
0.443,0.04843579
0.444,0.04861972
0.445,0.04874234
0.446,0.04886496
0.447,0.04898758
0.448,0.04904889
0.449,0.0491102
0.45,0.04917151
0.451,0.04914085
0.452,0.04917151
0.453,0.04914085
0.454,0.04904889
0.455,0.04898758
0.456,0.04886496
0.457,0.04868103
0.458,0.0484971
0.459,0.04828252
0.46,0.04797597
0.461,0.04770008
0.462,0.04733222
0.463,0.04690305
0.464,0.04647389
0.465,0.04595275
0.466,0.04537031
0.467,0.04478787
0.468,0.04411346
0.469,0.04337775
0.47,0.04264203
0.471,0.0417837
0.472,0.04092536
0.473,0.04006703
0.474,0.03908607
0.475,0.03813577
0.476,0.03718547
0.477,0.03617386
0.478,0.03516225
0.479,0.03421196
0.48,0.033231
0.481,0.0322807
0.482,0.03139171
0.483,0.03047206
0.484,0.02964438
0.485,0.02887801
0.486,0.02811164
0.487,0.02743724
0.488,0.02682414
0.489,0.02621104
0.49,0.02575122
0.491,0.02532205
0.492,0.02489289
0.493,0.02461699
0.494,0.0243411
0.495,0.02412652
0.496,0.0240039
0.497,0.02388128
0.498,0.02378931
0.499,0.02381997
0.5,0.02381997
0.501,0.02385062
0.502,0.02397324
0.503,0.02406521
0.504,0.02418783
0.505,0.02437175
0.506,0.02455568
0.507,0.02473961
0.508,0.02498485
0.509,0.02519943
0.51,0.02544468
0.511,0.02575122
0.512,0.02599646
0.513,0.02630301
0.514,0.02660956
0.515,0.02688545
0.516,0.02722265
0.517,0.02755986
0.518,0.02786641
0.519,0.02823426
0.52,0.02860212
0.521,0.02890867
0.522,0.02927653
0.523,0.02967504
0.524,0.03001224
0.525,0.03041076
0.526,0.03077861
0.527,0.03114647
0.528,0.03154498
0.529,0.0319435
0.53,0.03231135
0.531,0.03274052
0.532,0.03313904
0.533,0.03350689
0.534,0.03396672
0.535,0.03433457
0.536,0.03473309
0.537,0.03519291
0.538,0.03559142
0.539,0.03595928
0.54,0.0364191
0.541,0.03681761
0.542,0.03721613
0.543,0.03767595
0.544,0.03807446
0.545,0.03850363
0.546,0.0389328
0.547,0.03936196
0.548,0.03979113
0.549,0.0402203
0.55,0.04064947
0.551,0.04110929
0.552,0.04153846
0.553,0.04196763
0.554,0.04242745
0.555,0.04288727
0.556,0.04331644
0.557,0.04377626
0.558,0.04423608
0.559,0.04466525
0.56,0.04512507
0.561,0.04561555
0.562,0.04601406
0.563,0.04650454
0.564,0.04696436
0.565,0.04739353
0.566,0.04785335
0.567,0.04834383
0.568,0.048773
0.569,0.04923282
0.57,0.04972329
0.571,0.05012181
0.572,0.05061228
0.573,0.05107211
0.574,0.05153193
0.575,0.05202241
0.576,0.05245158
0.577,0.0529114
0.578,0.05340188
0.579,0.0538617
0.58,0.05432152
0.581,0.054812
0.582,0.05527182
0.583,0.05573164
0.584,0.05622212
0.585,0.05668194
0.586,0.05714176
0.587,0.05763224
0.588,0.05809207
0.589,0.05855189
0.59,0.05907302
0.591,0.05950218
0.592,0.05999266
0.593,0.06048314
0.594,0.06094296
0.595,0.06143344
0.596,0.06192392
0.597,0.06238374
0.598,0.06287422
0.599,0.06336469
0.6,0.06382452
0.601,0.06431499
0.602,0.06480547
0.603,0.06526529
0.604,0.06578642
0.605,0.0662769
0.606,0.06670607
0.607,0.06725786
0.608,0.06771768
0.609,0.06817751
0.61,0.06872929
0.611,0.06918911
0.612,0.06967959
0.613,0.07020072
0.614,0.0706912
0.615,0.07115102
0.616,0.07167216
0.617,0.07213198
0.618,0.07262245
0.619,0.07314359
0.62,0.07363406
0.621,0.07409389
0.622,0.07464567
0.623,0.07507484
0.624,0.07556532
0.625,0.07608645
0.626,0.07654627
0.627,0.07703675
0.628,0.07758854
0.629,0.0780177
0.63,0.07853883
0.631,0.07905997
0.632,0.07948913
0.633,0.08001027
0.634,0.08050074
0.635,0.08096056
0.636,0.08145104
0.637,0.08194152
0.638,0.08240134
0.639,0.08292247
0.64,0.08341295
0.641,0.08387277
0.642,0.0843939
0.643,0.08488438
0.644,0.0853442
0.645,0.08589599
0.646,0.08635581
0.647,0.08681564
0.648,0.08736742
0.649,0.08782724
0.65,0.08828707
0.651,0.0888695
0.652,0.08932933
0.653,0.08978915
0.654,0.09034094
0.655,0.09080076
0.656,0.09126058
0.657,0.09184303
0.658,0.09227219
0.659,0.09276267
0.66,0.09331446
0.661,0.09377428
0.662,0.09426476
0.663,0.09481654
0.664,0.09524571
0.665,0.09576684
0.666,0.09628798
0.667,0.0967478
0.668,0.09726893
0.669,0.09779006
0.67,0.09821923
0.671,0.09877102
0.672,0.09926149
0.673,0.09972132
0.674,0.1002731
0.675,0.1007942
0.676,0.1012234
0.677,0.1017752
0.678,0.1022657
0.679,0.1027255
0.68,0.1032773
0.681,0.1037678
0.682,0.1042582
0.683,0.10481
0.684,0.1052698
0.685,0.1057603
0.686,0.1063121
0.687,0.1067719
0.688,0.1072624
0.689,0.1078448
0.69,0.108274
0.691,0.1087951
0.692,0.1093469
0.693,0.1098068
0.694,0.1103279
0.695,0.110849
0.696,0.1113088
0.697,0.11183
0.698,0.1123818
0.699,0.1128109
0.7,0.1129948
0.6990001,0.112535
0.6980001,0.1119832
0.6970001,0.1115234
0.6960001,0.1110329
0.6950001,0.1105118
0.6940001,0.1100826
0.6930001,0.1095615
0.6920001,0.1090404
0.6910001,0.1086112
0.6900001,0.1080901
0.6890001,0.1075383
0.6880001,0.1071398
0.6870001,0.106588
0.6860001,0.1060669
0.6850001,0.1056377
0.6840001,0.1051166
0.6830001,0.1045954
0.6820001,0.1041663
0.6810001,0.1036451
0.6800001,0.1031547
0.6790001,0.1026948
0.6780001,0.1021737
0.6770001,0.1016832
0.6760001,0.1012234
0.6750001,0.1006716
0.6740001,0.1002118
0.6730001,0.09972132
0.6720001,0.09920018
0.6710001,0.09874036
0.6700001,0.09828054
0.6690001,0.09772875
0.6680001,0.09729959
0.6670001,0.09683976
0.6660001,0.09628798
0.6650001,0.09582815
0.6640001,0.09533768
0.6630001,0.09481654
0.6620001,0.09435672
0.6610001,0.09386625
0.6600001,0.09334511
0.6590001,0.09288529
0.6580001,0.09239481
0.6570001,0.09187368
0.6560001,0.09141386
0.6550001,0.09092338
0.6540001,0.09040225
0.6530001,0.08997308
0.6520001,0.08945195
0.6510001,0.08896147
0.6500001,0.08850165
0.6490001,0.08798052
0.6480001,0.08749004
0.6470001,0.08703022
0.6460001,0.08650909
0.6450001,0.08604927
0.6440001,0.08558945
0.6430001,0.08503766
0.6420001,0.08457784
0.6410001,0.08411801
0.6400001,0.08356623
0.6390001,0.0831064
0.6380001,0.08264658
0.6370001,0.08212545
0.6360001,0.08166563
0.6350001,0.08120581
0.6340001,0.08068467
0.6330001,0.0802555
0.6320001,0.07973437
0.6310001,0.07924389
0.6300001,0.07878407
0.6290001,0.07829359
0.6280001,0.07777246
0.6270001,0.07734329
0.6260001,0.07682216
0.6250001,0.07633169
0.6240001,0.07590251
0.6230001,0.07538139
0.6220001,0.0748909
0.6210001,0.07446174
0.6200001,0.0739406
0.6190001,0.07345013
0.6180001,0.07302096
0.6170001,0.07249983
0.6160001,0.07200935
0.6150001,0.07154953
0.6140001,0.07105906
0.6130001,0.07056858
0.6120001,0.07010876
0.6110001,0.06961828
0.6100001,0.0691278
0.6090001,0.06866798
0.6080001,0.06817751
0.6070001,0.06771768
0.6060001,0.06725786
0.6050001,0.06673672
0.6040001,0.0662769
0.6030001,0.06581708
0.6020001,0.06529595
0.6010001,0.06486678
0.6000001,0.0643763
0.5990001,0.06388583
0.5980001,0.06345665
0.5970001,0.06296618
0.5960001,0.06247571
0.5950001,0.06201588
0.5940001,0.0615254
0.5930001,0.06103493
0.5920001,0.06060576
0.5910001,0.06011529
0.5900001,0.0596248
0.5890001,0.05919564
0.5880001,0.0586745
0.5870001,0.05821468
0.5860001,0.05778552
0.5850001,0.05726438
0.5840001,0.05683522
0.5830001,0.05637539
0.5820001,0.05585426
0.5810001,0.0554251
0.5800001,0.05496527
0.5790001,0.0544748
0.5780001,0.05401497
0.5770001,0.05355515
0.5760001,0.05306467
0.5750001,0.05260485
0.5740001,0.05217568
0.5730001,0.0516852
0.5720001,0.05122538
0.5710001,0.05076556
0.5700001,0.05027508
0.5690001,0.04984592
0.5680001,0.0493861
0.5670001,0.04889562
0.5660001,0.04846645
0.5650001,0.04800662
0.5640001,0.04751615
0.5630001,0.04708698
0.5620001,0.04662716
0.5610001,0.04616734
0.5600001,0.04570751
0.5590001,0.04524769
0.5580001,0.04478787
0.5570001,0.0443587
0.5560001,0.04386823
0.5550001,0.04343906
0.5540001,0.04300989
0.5530001,0.04251941
0.5520001,0.04205959
0.5510001,0.04163042
0.5500001,0.0411706
0.5490001,0.04071078
0.5480001,0.04028161
0.5470001,0.03982178
0.5460001,0.03936196
0.5450001,0.0389328
0.5440001,0.03847298
0.5430001,0.03804381
0.5420001,0.03758398
0.5410001,0.03712416
0.5400001,0.036695
0.5390001,0.03626583
0.5380001,0.035806
0.5370001,0.03537684
0.5360001,0.03494767
0.5350001,0.03448785
0.5340001,0.03408933
0.5330001,0.03366017
0.5320001,0.03320035
0.5310001,0.03277118
0.5300001,0.03234201
0.5290001,0.03188219
0.5280001,0.03148368
0.5270001,0.03102385
0.5260001,0.03059468
0.5250001,0.03019617
0.5240001,0.02973635
0.5230001,0.02930718
0.5220001,0.02890867
0.5210001,0.02844885
0.5200001,0.02805033
0.5190001,0.02765182
0.5180001,0.027192
0.5170001,0.02679349
0.5160001,0.02639497
0.5150001,0.0259658
0.5140001,0.02553664
0.5130001,0.02513812
0.5120001,0.02470896
0.5110001,0.02431045
0.5100001,0.02391193
0.5090001,0.02348276
0.5080001,0.02308425
0.5070001,0.02268574
0.5060001,0.02225657
0.5050001,0.02185806
0.5040001,0.02145955
0.5030001,0.02106103
0.5020001,0.02069318
0.5010001,0.02029466
0.5000001,0.01989615
0.4990001,0.01949764
0.4980001,0.01909912
0.4970001,0.01873127
0.4960001,0.01836341
0.4950001,0.0179649
0.4940001,0.01759704
0.4930001,0.01722918
0.4920001,0.01683067
0.4910001,0.01646281
0.4900001,0.01609495
0.4890001,0.01572709
0.4880001,0.01535923
0.4870001,0.01502203
0.4860001,0.01462352
0.4850001,0.01428632
0.4840001,0.01391846
0.4830001,0.0135506
0.4820001,0.0132134
0.4810001,0.01236627
0.4800001,0.01202294
0.4790001,0.0116888
0.4780001,0.01135466
0.4770001,0.01101746
0.4760001,0.01069559
0.4750001,0.01037064
0.4740001,0.01003957
0.4730001,0.009726893
0.4720001,0.009414214
0.4710001,0.009095403
0.4700001,0.008794987
0.4690001,0.008485372
0.4680001,0.00818189
0.4670001,0.007890669
0.4660001,0.007593317
0.4650001,0.007302096
0.4640001,0.007023137
0.4630001,0.006734982
0.4620001,0.006459088
0.4610001,0.006189326
0.4600001,0.005913433
0.4590001,0.005652867
0.4580001,0.005395366
0.4570001,0.0051348
0.4560001,0.004892627
0.4550001,0.004644323
0.4540001,0.004399084
0.4530001,0.004169173
0.4520001,0.003936196
0.4510001,0.003706285
0.4500001,0.00348557
0.4490001,0.003274052
0.4480001,0.003056403
0.4470001,0.002851016
0.4460001,0.002654824
0.4450001,0.002455568
0.4440001,0.002265508
0.4430001,0.002081579
0.4420001,0.00189765
0.4410001,0.001725983
0.4400001,0.001560447
0.4390001,0.00138878
0.4380001,0.001235506
0.4370001,0.001048713
0.4360001,0.000897585
0.4350001,0.0007602514
0.4340001,0.0006195458
0.4330001,0.0004858907
0.4320001,0.0003605125
0.4310001,0.000233908
0.4300001,0.0001174197
0.4290001,2.770608E-06
0.4280001,-0.0001129312
0.4270001,-0.0002130192
0.4260001,-0.0003155903
0.4250001,-0.0004101499
0.4240001,-0.0004984358
0.4230001,-0.0005894807
0.4220001,-0.0006716356
0.4210001,-0.0007494989
0.4200001,-0.0008279752
0.4190001,-0.0008954158
0.4180001,-0.0009656154
0.4170001,-0.001031217
0.4160001,-0.0010913
0.4150001,-0.001153223
0.4140001,-0.001207789
0.4130001,-0.001259289
0.4120001,-0.001312015
0.4110001,-0.001357078
0.4100001,-0.001409804
0.4090001,-0.001458852
0.4080001,-0.001492879
0.4070001,-0.00153181
0.4060001,-0.001566757
0.4050001,-0.001600783
0.4040001,-0.001634504
0.4030001,-0.001664239
0.4020001,-0.001695507
0.4010001,-0.00172187
0.4000001,-0.00174762
0.3990001,-0.001776436
0.3980001,-0.001798507
0.3970001,-0.001823951
0.3960001,-0.001850314
0.3950001,-0.00186748
0.3940001,-0.001891085
0.3930001,-0.001911623
0.3920001,-0.001929097
0.3910001,-0.001952394
0.3900001,-0.001970174
0.3890001,-0.001988874
0.3880001,-0.002008493
0.3870001,-0.002023207
0.3860001,-0.002044359
0.3850001,-0.002061219
0.3840001,-0.00207532
0.3830001,-0.002097085
0.3820001,-0.002111186
0.3810001,-0.002128966
0.3800001,-0.002150731
0.3790001,-0.002164526
0.3780001,-0.002185064
0.3770001,-0.002206216
0.3760001,-0.002220011
0.3750001,-0.002242082
0.3740001,-0.002261702
0.3730001,-0.002279788
0.3720001,-0.002301246
0.3710001,-0.002323931
0.3700001,-0.00234355
0.3690001,-0.002365008
0.3680001,-0.002386773
0.3670001,-0.002409764
0.3660001,-0.002431529
0.3650001,-0.002458506
0.3640001,-0.002483029
0.3630001,-0.002506327
0.3620001,-0.002536062
0.3610001,-0.002560586
0.3600001,-0.002588175
0.3590001,-0.002621896
0.3580001,-0.002649485
0.3570001,-0.00268014
0.3560001,-0.00271386
0.3550001,-0.002740836
0.3540001,-0.002778235
0.3530001,-0.002813182
0.3520001,-0.002844756
0.3510001,-0.00288798
