EXPID. 0133
[电化学]: i-t : @ 0(V) X 600(sec)
起始电位 (V),0
静置时间 (秒),0
运行时间 (秒),600
记录间隔,0.1
电解液 信息:
HNO3,0.4
0.1,-0.0005319057
0.2,-0.0005064422
0.3,-0.0004887329
0.4,-0.0004753971
0.5,-0.0004650437
0.6,-0.000456797
0.7,-0.0004495513
0.8000001,-0.0004435986
0.9000001,-0.0004385387
1,-0.0004337612
1.1,-0.0004296986
1.2,-0.0004260466
1.3,-0.0004224972
1.4,-0.0004193876
1.5,-0.0004163289
1.6,-0.0004134387
1.7,-0.0004108734
1.8,-0.0004084306
1.9,-0.0004058398
2,-0.0004033528
2.1,-0.0004012433
2.2,-0.0003992082
2.3,-0.0003968887
2.4,-0.0003950542
2.5,-0.0003933375
2.6,-0.0003914822
2.7,-0.000389902
2.799999,-0.000388238
2.899999,-0.0003865099
2.999999,-0.0003847912
3.099999,-0.0003831837
3.199999,-0.0003816289
3.299999,-0.0003799818
3.399999,-0.0003785815
3.499999,-0.0003769833
3.599999,-0.0003755472
3.699999,-0.0003741968
3.799999,-0.0003727088
3.899998,-0.0003712755
3.999998,-0.000369909
4.099998,-0.000368616
4.199998,-0.0003672873
4.299998,-0.0003659085
4.399998,-0.0003648237
4.499998,-0.0003634318
4.599998,-0.0003621576
4.699998,-0.0003608976
4.799998,-0.0003596573
4.899998,-0.000358499
4.999998,-0.000357271
5.099998,-0.0003560665
5.199997,-0.0003548018
5.299997,-0.0003536736
5.399997,-0.0003525021
5.499997,-0.0003514172
5.599997,-0.000350306
5.699997,-0.0003494226
5.799997,-0.0003483472
5.899997,-0.0003472802
5.999997,-0.0003460625
6.099997,-0.0003450332
6.199996,-0.0003439615
6.299996,-0.0003429011
6.399996,-0.0003419688
6.499996,-0.0003408783
6.599996,-0.0003399271
6.699996,-0.000338928
6.799996,-0.0003379015
6.899996,-0.0003369889
6.999996,-0.0003358598
7.099996,-0.0003349877
7.199996,-0.0003340291
7.299995,-0.0003330629
7.399995,-0.0003322982
7.499995,-0.0003313188
7.599995,-0.0003304486
7.699995,-0.0003295709
7.799995,-0.0003285746
7.899995,-0.0003276752
7.999995,-0.000326645
8.099995,-0.0003257079
8.199995,-0.0003250261
8.299995,-0.0003239996
8.399996,-0.0003231888
8.499996,-0.0003222518
8.599997,-0.0003214316
8.699997,-0.0003204503
8.799997,-0.0003197082
8.899998,-0.0003188267
8.999998,-0.000317965
9.099998,-0.0003171796
9.199999,-0.0003162143
9.299999,-0.0003152575
9.4,-0.0003146681
9.5,-0.0003137687
9.6,-0.0003131001
9.700001,-0.0003122412
9.800001,-0.0003113484
9.900002,-0.0003107137
10,-0.0003097607
10.1,-0.0003090789
10.2,-0.0003081691
10.3,-0.0003072867
10.4,-0.0003065748
10.5,-0.000305877
10.6,-0.0003050614
10.7,-0.0003042374
10.8,-0.0003036036
10.90001,-0.0003029039
11.00001,-0.0003020272
11.10001,-0.0003013567
11.20001,-0.0003006456
11.30001,-0.0002998452
11.40001,-0.0002991784
11.50001,-0.0002984646
11.60001,-0.0002975888
11.70001,-0.000296793
11.80001,-0.0002961686
11.90001,-0.0002953983
12.00001,-0.0002946497
12.10001,-0.0002939904
12.20001,-0.0002932239
12.30001,-0.0002925279
12.40001,-0.0002918734
12.50001,-0.000291185
12.60001,-0.0002903733
12.70001,-0.0002897244
12.80001,-0.0002891047
12.90001,-0.0002883787
13.00001,-0.0002876253
13.10001,-0.0002869566
13.20001,-0.0002862654
13.30001,-0.0002855365
13.40001,-0.0002849423
13.50002,-0.000284203
13.60002,-0.0002835118
13.70002,-0.000283072
13.80002,-0.0002822716
13.90002,-0.0002815869
14.00002,-0.000280841
14.10002,-0.0002801979
14.20002,-0.0002797364
14.30002,-0.0002790094
14.40002,-0.0002784132
14.50002,-0.0002778463
14.60002,-0.0002771617
14.70002,-0.0002765646
14.80002,-0.0002760081
14.90002,-0.0002752698
15.00002,-0.0002747
15.10002,-0.0002739748
15.20002,-0.000273277
15.30002,-0.0002726291
15.40002,-0.0002721582
15.50002,-0.0002714717
15.60002,-0.0002709039
15.70002,-0.0002705922
15.80002,-0.0002699452
15.90002,-0.0002692173
16.00002,-0.0002687859
16.10003,-0.000268186
16.20003,-0.0002675325
16.30003,-0.0002668987
16.40003,-0.000266311
16.50003,-0.0002657639
16.60003,-0.0002652224
16.70003,-0.0002647657
16.80003,-0.0002641592
16.90003,-0.0002636205
17.00003,-0.0002631261
17.10003,-0.0002624989
17.20003,-0.0002619932
17.30003,-0.0002613256
17.40003,-0.0002607765
17.50003,-0.0002602322
17.60003,-0.000259588
17.70003,-0.0002590324
17.80003,-0.000258361
17.90003,-0.0002577969
18.00003,-0.000257229
18.10003,-0.0002566734
18.20003,-0.0002560283
18.30003,-0.0002556751
18.40003,-0.0002551016
18.50003,-0.0002546675
18.60003,-0.0002540384
18.70004,-0.0002535431
18.80004,-0.0002530336
18.90004,-0.0002524893
19.00004,-0.0002520128
19.10004,-0.0002513818
19.20004,-0.000250877
19.30004,-0.000250392
19.40004,-0.0002498072
19.50004,-0.0002492573
19.60004,-0.0002488128
19.70004,-0.0002483607
19.80004,-0.0002479059
19.90004,-0.0002472843
20.00004,-0.0002468511
20.10004,-0.0002464622
20.20004,-0.0002459442
20.30004,-0.0002454366
20.40004,-0.0002450147
20.50004,-0.0002444808
20.60004,-0.0002440316
20.70004,-0.0002436492
20.80004,-0.000243168
20.90004,-0.0002425088
21.00004,-0.0002422451
21.10004,-0.0002417074
21.20004,-0.0002410821
21.30005,-0.0002406875
21.40005,-0.0002400914
21.50005,-0.0002395894
21.60005,-0.0002391073
21.70005,-0.0002386948
21.80005,-0.0002380271
21.90005,-0.0002375252
22.00005,-0.0002370891
22.10005,-0.0002365684
22.20005,-0.0002360429
22.30005,-0.0002355343
22.40005,-0.0002351454
22.50005,-0.0002346689
22.60005,-0.0002341509
22.70005,-0.0002337648
22.80005,-0.0002332864
22.90005,-0.0002327091
23.00005,-0.0002323522
23.10005,-0.000231903
23.20005,-0.0002314331
23.30005,-0.000230999
23.40005,-0.0002305469
23.50005,-0.0002300817
23.60005,-0.000229511
23.70005,-0.0002290863
23.80005,-0.0002285891
23.90005,-0.0002281597
24.00006,-0.0002277585
24.10006,-0.000227281
24.20006,-0.0002268704
24.30006,-0.000226328
24.40006,-0.0002260078
24.50006,-0.0002256207
24.60006,-0.0002250237
24.70006,-0.0002246809
24.80006,-0.0002243654
24.90006,-0.000223823
25.00006,-0.0002234623
25.10006,-0.0002230696
25.20006,-0.0002225724
25.30006,-0.0002222277
25.40006,-0.0002217013
25.50006,-0.0002211984
25.60006,-0.0002207369
25.70006,-0.0002204648
25.80006,-0.0002200146
25.90006,-0.0002196982
26.00006,-0.0002194618
26.10006,-0.000218974
26.20006,-0.0002184617
26.30006,-0.0002182564
26.40006,-0.0002178684
26.50006,-0.0002173514
26.60007,-0.0002169728
26.70007,-0.0002165726
26.80007,-0.000215951
26.90007,-0.0002156054
27.00007,-0.0002152918
27.10007,-0.0002148605
27.20007,-0.0002144461
27.30007,-0.0002141363
27.40007,-0.0002137304
27.50007,-0.0002133481
27.60007,-0.0002130703
27.70007,-0.000212639
27.80007,-0.0002122048
27.90007,-0.0002117095
28.00007,-0.0002113733
28.10007,-0.0002109222
28.20007,-0.0002104447
28.30007,-0.0002101217
28.40007,-0.0002097667
28.50007,-0.0002093749
28.60007,-0.0002090331
28.70007,-0.0002086065
28.80007,-0.0002081441
28.90007,-0.0002078248
29.00007,-0.0002075828
29.10007,-0.0002071958
29.20008,-0.0002067221
29.30008,-0.0002066119
29.40008,-0.0002063077
29.50008,-0.000205737
29.60008,-0.0002054874
29.70008,-0.0002051522
29.80008,-0.0002046154
29.90008,-0.0002042839
30.00008,-0.0002039609
30.10008,-0.0002036812
30.20008,-0.0002032273
30.30008,-0.0002029259
30.40008,-0.0002025106
30.50008,-0.000202149
30.60008,-0.0002018759
30.70008,-0.0002015218
30.80008,-0.0002011451
30.90008,-0.0002008664
31.00008,-0.0002004888
31.10008,-0.0002001704
31.20008,-0.0001997994
31.30008,-0.000199547
31.40008,-0.0001990799
31.50008,-0.0001988332
31.60008,-0.000198593
31.70008,-0.0001981551
31.80009,-0.0001979141
31.90009,-0.0001974536
32.00008,-0.000197156
32.10008,-0.00019688
32.20008,-0.0001964271
32.30008,-0.0001961267
32.40008,-0.0001958281
32.50008,-0.0001954354
32.60007,-0.0001951312
32.70007,-0.0001947998
32.80007,-0.000194392
32.90007,-0.0001941565
33.00007,-0.0001937224
33.10007,-0.0001934277
33.20007,-0.0001931206
33.30006,-0.0001926874
33.40006,-0.0001924473
33.50006,-0.0001922109
33.60006,-0.0001917118
33.70006,-0.0001914302
33.80006,-0.000191192
33.90005,-0.0001908059
34.00005,-0.0001904716
34.10005,-0.0001901796
34.20005,-0.0001898434
34.30005,-0.0001893904
34.40005,-0.0001891268
34.50005,-0.0001887284
34.60004,-0.0001884421
34.70004,-0.0001880824
34.80004,-0.000187863
34.90004,-0.0001874222
35.00004,-0.0001871632
35.10004,-0.0001868609
35.20004,-0.0001865427
35.30003,-0.0001862253
35.40003,-0.0001859531
35.50003,-0.0001856395
35.60003,-0.0001852798
35.70003,-0.0001850001
35.80003,-0.000184646
35.90002,-0.0001844106
36.00002,-0.0001840998
36.10002,-0.0001836817
36.20002,-0.0001835046
36.30002,-0.0001832306
36.40002,-0.0001829264
36.50002,-0.0001826703
36.60001,-0.0001823425
36.70001,-0.0001821834
36.80001,-0.0001819244
36.90001,-0.0001815006
37.00001,-0.0001812256
37.10001,-0.0001809271
37.2,-0.0001806126
37.3,-0.0001802443
37.4,-0.0001798959
37.5,-0.0001797047
37.6,-0.000179442
37.7,-0.0001791105
37.8,-0.0001790135
37.89999,-0.0001787865
37.99999,-0.0001786236
38.09999,-0.0001785351
38.19999,-0.0001781481
38.29999,-0.0001779475
38.39999,-0.000177584
38.49998,-0.000177276
38.59998,-0.0001770848
38.69998,-0.0001767496
38.79998,-0.0001765302
38.89998,-0.0001761827
38.99998,-0.0001759858
39.09998,-0.0001756581
39.19997,-0.0001753379
39.29997,-0.0001751176
39.39997,-0.0001748087
39.49997,-0.0001745337
39.59997,-0.0001742662
39.69997,-0.0001740063
39.79996,-0.0001737417
39.89996,-0.000173462
39.99996,-0.0001730542
40.09996,-0.0001728828
40.19996,-0.000172557
40.29996,-0.0001722123
40.39996,-0.0001719854
40.49995,-0.0001716972
40.59995,-0.0001715032
40.69995,-0.0001713742
40.79995,-0.0001709984
40.89995,-0.0001706434
40.99995,-0.0001704607
41.09995,-0.0001701659
41.19994,-0.0001698495
41.29994,-0.0001695689
41.39994,-0.0001693391
41.49994,-0.0001689323
41.59994,-0.0001687015
41.69994,-0.0001684868
41.79993,-0.0001682194
41.89993,-0.0001679868
41.99993,-0.0001680084
42.09993,-0.0001676534
42.19993,-0.0001672635
42.29993,-0.0001671524
42.39993,-0.000167029
42.49992,-0.0001665808
42.59992,-0.000166302
42.69992,-0.0001661146
42.79992,-0.0001658924
42.89992,-0.0001655665
42.99992,-0.0001651936
43.09991,-0.0001649996
43.19991,-0.0001648461
43.29991,-0.0001645909
43.39991,-0.0001645937
43.49991,-0.0001644628
43.59991,-0.0001641332
43.69991,-0.0001641841
43.7999,-0.0001640249
43.8999,-0.0001636991
43.9999,-0.0001634533
44.0999,-0.0001632122
44.1999,-0.0001629155
44.2999,-0.000162649
44.39989,-0.0001623769
44.49989,-0.0001621028
44.59989,-0.0001618476
44.69989,-0.0001617421
44.79989,-0.000161422
44.89989,-0.0001612044
44.99989,-0.0001610236
45.09988,-0.0001606799
45.19988,-0.0001604416
45.29988,-0.000160274
45.39988,-0.0001599943
45.49988,-0.0001597259
45.59988,-0.0001595263
45.69987,-0.0001592588
45.79987,-0.0001589019
45.89987,-0.0001586881
45.99987,-0.0001585214
46.09987,-0.000158206
46.19987,-0.0001580346
46.29987,-0.0001579074
46.39986,-0.0001576532
46.49986,-0.0001574356
46.59986,-0.0001572379
46.69986,-0.0001569958
46.79986,-0.0001568414
46.89986,-0.0001564553
46.99986,-0.0001562368
47.09985,-0.0001559571
47.19985,-0.0001556962
47.29985,-0.0001555569
47.39985,-0.0001552866
47.49985,-0.0001551321
47.59985,-0.000154957
47.69984,-0.0001547451
47.79984,-0.0001544682
47.89984,-0.0001542026
47.99984,-0.0001540717
48.09984,-0.0001539107
48.19984,-0.000153648
48.29984,-0.0001535227
48.39983,-0.0001532826
48.49983,-0.0001530952
48.59983,-0.000152904
48.69983,-0.000152645
48.79983,-0.000152532
48.89983,-0.0001522589
48.99982,-0.00015195
49.09982,-0.0001517645
49.19982,-0.0001514208
49.29982,-0.0001512974
49.39982,-0.0001511684
49.49982,-0.0001510478
49.59982,-0.0001510055
49.69981,-0.000150917
49.79981,-0.0001507813
49.89981,-0.0001505064
49.99981,-0.000150366
50.09981,-0.0001501466
50.19981,-0.0001498801
50.2998,-0.0001497115
50.3998,-0.0001494234
50.4998,-0.0001492746
50.5998,-0.0001491051
50.6998,-0.0001489045
50.7998,-0.0001486558
50.8998,-0.0001484364
50.99979,-0.0001483451
51.09979,-0.0001481285
51.19979,-0.0001478893
51.29979,-0.0001477499
51.39979,-0.0001475813
51.49979,-0.0001473233
51.59978,-0.00014715
51.69978,-0.0001469127
51.79978,-0.0001467027
51.89978,-0.0001465078
51.99978,-0.0001462657
52.09978,-0.0001460802
52.19978,-0.0001459898
52.29977,-0.0001457704
52.39977,-0.0001455105
52.49977,-0.0001453259
52.59977,-0.0001451583
52.69977,-0.0001448805
52.79977,-0.0001446912
52.89977,-0.0001445735
52.99976,-0.0001443069
53.09976,-0.0001440319
53.19976,-0.0001439463
53.29976,-0.0001438022
53.39976,-0.0001435959
53.49976,-0.0001434142
53.59975,-0.0001432409
53.69975,-0.0001430667
53.79975,-0.0001428783
53.89975,-0.0001427738
53.99975,-0.0001424856
54.09975,-0.0001423349
54.19975,-0.0001422502
54.29974,-0.0001419762
54.39974,-0.0001417793
54.49974,-0.0001415637
54.59974,-0.0001413019
54.69974,-0.0001411333
54.79974,-0.0001409647
54.89973,-0.000140977
54.99973,-0.000140928
55.09973,-0.0001406888
55.19973,-0.0001406135
55.29973,-0.0001404788
55.39973,-0.0001403583
55.49973,-0.000140104
55.59972,-0.0001399872
55.69972,-0.0001398309
55.79972,-0.0001396501
55.89972,-0.0001395616
55.99972,-0.0001393261
56.09972,-0.000139166
56.19971,-0.0001390615
56.29971,-0.0001388722
56.39971,-0.0001386839
56.49971,-0.0001385087
56.59971,-0.0001383881
56.69971,-0.0001382375
56.79971,-0.0001381254
56.8997,-0.0001380265
56.9997,-0.0001377996
57.0997,-0.0001376432
57.1997,-0.000137567
57.2997,-0.0001372807
57.3997,-0.000137179
57.49969,-0.0001369708
57.59969,-0.0001367693
57.69969,-0.0001366309
57.79969,-0.0001364426
57.89969,-0.0001361431
57.99969,-0.0001360263
58.09969,-0.000135773
58.19968,-0.000135578
58.29968,-0.0001354547
58.39968,-0.0001353539
58.49968,-0.0001352079
58.59968,-0.0001350092
58.69968,-0.0001348501
58.79967,-0.0001347634
58.89967,-0.0001345883
58.99967,-0.000134382
59.09967,-0.000134189
59.19967,-0.0001340647
59.29967,-0.0001338424
59.39967,-0.000133671
59.49966,-0.0001335204
59.59966,-0.0001333009
59.69966,-0.000133186
59.79966,-0.0001330212
59.89966,-0.000132798
59.99966,-0.0001326483
60.09966,-0.0001324797
60.19965,-0.0001323686
60.29965,-0.0001321247
60.39965,-0.0001317574
60.49965,-0.000131894
60.59965,-0.0001316924
60.69965,-0.0001315493
60.79964,-0.000131393
60.89964,-0.0001313111
60.99964,-0.0001311368
61.09964,-0.0001310417
61.19964,-0.0001310351
61.29964,-0.0001308147
61.39964,-0.0001307234
61.49963,-0.0001307281
61.59963,-0.0001305473
61.69963,-0.000130439
61.79963,-0.0001302337
61.89963,-0.0001301433
61.99963,-0.0001299653
62.09962,-0.0001296969
62.19962,-0.0001296121
62.29962,-0.0001295246
62.39962,-0.0001292939
62.49962,-0.0001291554
62.59962,-0.0001290415
62.69962,-0.0001288456
62.79961,-0.0001287477
62.89961,-0.0001285339
62.99961,-0.0001284416
63.09961,-0.0001282278
63.19961,-0.0001281242
63.29961,-0.0001278813
63.3996,-0.0001278003
63.4996,-0.0001277579
63.5996,-0.0001276345
63.6996,-0.0001274217
63.7996,-0.0001273831
63.8996,-0.0001272465
63.9996,-0.0001270572
64.09959,-0.0001270111
64.19959,-0.0001268425
64.29959,-0.0001265855
64.39959,-0.0001265299
64.49959,-0.0001264084
64.59959,-0.0001262521
64.69958,-0.0001261004
64.79958,-0.0001260383
64.89958,-0.0001258594
64.99958,-0.0001257059
65.09958,-0.0001255976
65.19958,-0.0001253932
65.29958,-0.000125348
65.39957,-0.0001251493
65.49957,-0.0001249826
65.59957,-0.000124815
65.69957,-0.0001246003
65.79957,-0.0001244863
65.89957,-0.0001244044
65.99957,-0.0001243017
66.09956,-0.0001243771
66.19956,-0.0001242904
66.29956,-0.0001242038
66.39956,-0.0001240946
66.49956,-0.0001240362
66.59956,-0.0001239043
66.69955,-0.0001236623
66.79955,-0.0001235672
66.89955,-0.0001235154
66.99955,-0.0001233591
67.09955,-0.0001233063
67.19955,-0.0001231651
67.29955,-0.000123005
67.39954,-0.0001229174
67.49954,-0.0001227677
67.59954,-0.0001226038
67.69954,-0.0001224748
67.79954,-0.0001223288
67.89954,-0.0001222883
67.99953,-0.0001221273
68.09953,-0.0001220557
68.19953,-0.0001219022
68.29953,-0.0001217157
68.39953,-0.0001216282
68.49953,-0.0001213861
68.59953,-0.000121291
68.69952,-0.0001211705
68.79952,-0.0001209049
68.89952,-0.0001208456
68.99952,-0.0001207184
69.09952,-0.0001204689
69.19952,-0.0001202561
69.29951,-0.0001201374
69.39951,-0.000120241
69.49951,-0.0001201026
69.59951,-0.0001200074
69.69951,-0.0001198831
69.79951,-0.0001198021
69.89951,-0.0001196609
69.9995,-0.0001195554
70.0995,-0.0001194735
70.1995,-0.0001192785
70.2995,-0.0001191392
70.3995,-0.0001190987
70.4995,-0.0001189489
70.59949,-0.0001187794
70.69949,-0.0001187361
70.79949,-0.0001185572
70.89949,-0.0001184743
70.99949,-0.0001182916
71.09949,-0.0001181739
71.19949,-0.0001179865
71.29948,-0.0001178782
71.39948,-0.0001178236
71.49948,-0.0001176889
71.59948,-0.0001176267
71.69948,-0.0001174252
71.79948,-0.0001173715
71.89948,-0.0001172792
71.99947,-0.0001170711
72.09947,-0.0001170203
72.19947,-0.0001168762
72.29947,-0.0001166756
72.39947,-0.0001166558
72.49947,-0.0001165899
72.59946,-0.0001164439
72.69946,-0.0001163799
72.79946,-0.000116217
72.89946,-0.0001160475
72.99946,-0.0001158808
73.09946,-0.0001157471
73.19946,-0.0001156614
73.29945,-0.0001155304
73.39945,-0.0001154184
73.49945,-0.0001152969
73.59945,-0.0001151792
73.69945,-0.0001151104
73.79945,-0.0001149165
73.89944,-0.0001147479
73.99944,-0.0001146933
74.09944,-0.000114503
74.19944,-0.0001143759
74.29944,-0.0001143665
74.39944,-0.000114212
74.49944,-0.0001140727
74.59943,-0.0001139822
74.69943,-0.0001138871
74.79943,-0.000113743
74.89943,-0.0001135754
74.99943,-0.0001135575
75.09943,-0.0001133861
75.19942,-0.0001131902
75.29942,-0.0001131676
75.39942,-0.0001129058
75.49942,-0.0001127523
75.59942,-0.0001127109
75.69942,-0.000112661
75.79942,-0.0001124538
75.89941,-0.000112337
75.99941,-0.0001122626
76.09941,-0.000112143
76.19941,-0.0001119905
76.29941,-0.0001120206
76.39941,-0.000111853
76.4994,-0.0001116562
76.5994,-0.0001116458
76.6994,-0.0001115158
76.7994,-0.0001112945
76.8994,-0.0001112352
76.9994,-0.0001111109
77.0994,-0.0001109725
77.19939,-0.0001108839
77.29939,-0.0001108152
77.39939,-0.0001105911
77.49939,-0.0001104912
77.59939,-0.0001105082
77.69939,-0.0001103575
77.79939,-0.0001102407
77.89938,-0.0001102492
77.99938,-0.0001100873
78.09938,-0.0001100354
78.19938,-0.0001099074
78.29938,-0.0001098885
78.39938,-0.0001097482
78.49937,-0.0001095975
78.59937,-0.0001095985
78.69937,-0.0001094949
78.79937,-0.0001093941
78.89937,-0.0001093216
78.99937,-0.0001092171
79.09937,-0.0001090382
79.19936,-0.0001089704
79.29936,-0.0001089176
79.39936,-0.0001087801
79.49936,-0.0001086342
79.59936,-0.0001086643
79.69936,-0.0001085833
79.79935,-0.0001084336
79.89935,-0.0001083771
79.99935,-0.0001082377
80.09935,-0.0001081106
80.19935,-0.0001081228
80.29935,-0.0001079665
80.39935,-0.0001078233
80.49934,-0.000107764
80.59934,-0.0001076114
80.69934,-0.000107392
80.79934,-0.0001072912
80.89934,-0.0001072621
80.99934,-0.0001071001
81.09933,-0.0001069513
81.19933,-0.0001069776
81.29933,-0.0001069127
81.39933,-0.00010681
81.49933,-0.0001067093
81.59933,-0.000106714
81.69933,-0.0001065784
81.79932,-0.0001064013
81.89932,-0.000106293
81.99932,-0.0001062196
82.09932,-0.0001060726
82.19932,-0.0001059577
82.29932,-0.0001058711
82.39931,-0.000105728
82.49931,-0.0001056856
82.59931,-0.0001055377
82.69931,-0.0001054228
82.79931,-0.0001054539
82.89931,-0.0001052731
82.99931,-0.0001051902
83.0993,-0.0001050791
83.1993,-0.0001050358
83.2993,-0.0001048814
83.3993,-0.0001048362
83.4993,-0.0001048248
83.5993,-0.0001048258
83.6993,-0.0001047599
83.79929,-0.0001048183
83.89929,-0.0001047504
83.99929,-0.0001047363
84.09929,-0.0001047599
84.19929,-0.0001046864
84.29929,-0.0001045555
84.39928,-0.0001045367
84.49928,-0.0001045357
84.59928,-0.0001044595
84.69928,-0.0001043578
84.79928,-0.0001043578
84.89928,-0.0001043182
84.99928,-0.0001042278
85.09927,-0.0001042024
85.19927,-0.0001040959
85.29927,-0.0001040121
85.39927,-0.0001039123
85.49927,-0.0001038756
85.59927,-0.0001037852
85.69926,-0.0001036693
85.79926,-0.0001037164
85.89926,-0.0001035582
85.99926,-0.0001034151
86.09926,-0.0001033915
86.19926,-0.0001032682
86.29926,-0.000103174
86.39925,-0.0001031005
86.49925,-0.0001029103
86.59925,-0.000102866
86.69925,-0.0001026994
86.79925,-0.0001025543
86.89925,-0.0001024602
86.99924,-0.0001023434
87.09924,-0.0001022718
87.19924,-0.0001021211
87.29924,-0.0001020825
87.39924,-0.0001020364
87.49924,-0.0001019064
87.59924,-0.0001017925
87.69923,-0.0001017623
87.79923,-0.0001016474
87.89923,-0.0001015702
87.99923,-0.000101429
