EXPID. 0519
[电化学]: CV : 0 >> 0.7 >> 0 >> 0(V) @ 0.01(V/s) X 10(Seg)
起始电位 (V),0
上限电位 (V),0.7
下限电位 (V),0
终止电位 (V),0
扫速 (V/s),0.01
电解液 信息:
KOH,1
0.001,1.009782E-05
0.002,1.048713E-05
0.003,1.07385E-05
0.004,1.108797E-05
0.005,1.129642E-05
0.006,1.146809E-05
0.007,1.15999E-05
0.008,1.172252E-05
0.009,1.181142E-05
0.01,1.194937E-05
0.011,1.20444E-05
0.012,1.227431E-05
0.013,1.247663E-05
0.014,1.26299E-05
0.015,1.276478E-05
0.016,1.284449E-05
0.017,1.299163E-05
0.018,1.303148E-05
0.019,1.313877E-05
0.02,1.325526E-05
0.021,1.340854E-05
0.022,1.363538E-05
0.023,1.385916E-05
0.024,1.389288E-05
0.025,1.401857E-05
0.026,1.40952E-05
0.027,1.416571E-05
0.028,1.426381E-05
0.029,1.435884E-05
0.03,1.443241E-05
0.031,1.465006E-05
0.032,1.486158E-05
0.033,1.4975E-05
0.034,1.512521E-05
0.035,1.515586E-05
0.036,1.533059E-05
0.037,1.544095E-05
0.038,1.548693E-05
0.039,1.559423E-05
0.04,1.568926E-05
0.041,1.582107E-05
0.042,1.605711E-05
0.043,1.616441E-05
0.044,1.632994E-05
0.045,1.645563E-05
0.046,1.649854E-05
0.047,1.661197E-05
0.048,1.66978E-05
0.049,1.676831E-05
0.05,1.69553E-05
0.051,1.71239E-05
0.052,1.732929E-05
0.053,1.744271E-05
0.054,1.751628E-05
0.055,1.762664E-05
0.056,1.770021E-05
0.057,1.7737E-05
0.058,1.789334E-05
0.059,1.802209E-05
0.06,1.816923E-05
0.061,1.842367E-05
0.062,1.847578E-05
0.063,1.862905E-05
0.064,1.8767E-05
0.065,1.884977E-05
0.066,1.897545E-05
0.067,1.897852E-05
0.068,1.910114E-05
0.069,1.919004E-05
0.07,1.939236E-05
0.071,1.959468E-05
0.072,1.976328E-05
0.073,1.983992E-05
0.074,1.998706E-05
0.075,2.001159E-05
0.076,2.02231E-05
0.077,2.031507E-05
0.078,2.038558E-05
0.079,2.046221E-05
0.08,2.055724E-05
0.081,2.071665E-05
0.082,2.087299E-05
0.083,2.107224E-05
0.084,2.130829E-05
0.085,2.141865E-05
0.086,2.152594E-05
0.087,2.168534E-05
0.088,2.170986E-05
0.089,2.182942E-05
0.09,2.198576E-05
0.091,2.202561E-05
0.092,2.215742E-05
0.093,2.231376E-05
0.094,2.244251E-05
0.095,2.268469E-05
0.096,2.288394E-05
0.097,2.302496E-05
0.098,2.315677E-05
0.099,2.32518E-05
0.1,2.340814E-05
0.101,2.359207E-05
0.102,2.371162E-05
0.103,2.37852E-05
0.104,2.388329E-05
0.105,2.406109E-05
0.106,2.425115E-05
0.107,2.489288E-05
0.108,2.507682E-05
0.109,2.526074E-05
0.11,2.535271E-05
0.111,2.556729E-05
0.112,2.565926E-05
0.113,2.578188E-05
0.114,2.59658E-05
0.115,2.608842E-05
0.116,2.627235E-05
0.117,2.642563E-05
0.118,2.660956E-05
0.119,2.682414E-05
0.12,2.706938E-05
0.121,2.731462E-05
0.122,2.746789E-05
0.123,2.765182E-05
0.124,2.78664E-05
0.125,2.801968E-05
0.126,2.823426E-05
0.127,2.844885E-05
0.128,2.857147E-05
0.129,2.878605E-05
0.13,2.896998E-05
0.131,2.912325E-05
0.132,2.936849E-05
0.133,2.958307E-05
0.134,2.9767E-05
0.135,3.001224E-05
0.136,3.028813E-05
0.137,3.053337E-05
0.138,3.083992E-05
0.139,3.10545E-05
0.14,3.13304E-05
0.141,3.154498E-05
0.142,3.175957E-05
0.143,3.206612E-05
0.144,3.22807E-05
0.145,3.252594E-05
0.146,3.274052E-05
0.147,3.298576E-05
0.148,3.332296E-05
0.149,3.35682E-05
0.15,3.381344E-05
0.151,3.427326E-05
0.152,3.454915E-05
0.153,3.482505E-05
0.154,3.516225E-05
0.155,3.540749E-05
0.156,3.574469E-05
0.157,3.602059E-05
0.158,3.629648E-05
0.159,3.666434E-05
0.16,3.687892E-05
0.161,3.724678E-05
0.162,3.761464E-05
0.163,3.792119E-05
0.164,3.838101E-05
0.165,3.874887E-05
0.166,3.917803E-05
0.167,3.966851E-05
0.168,3.997506E-05
0.169,4.031226E-05
0.17,4.077208E-05
0.171,4.113995E-05
0.172,4.159976E-05
0.173,4.205959E-05
0.174,4.239679E-05
0.175,4.285661E-05
0.176,4.328578E-05
0.177,4.37456E-05
0.178,4.414412E-05
0.179,4.460394E-05
0.18,4.509441E-05
0.181,4.558489E-05
0.182,4.610602E-05
0.183,4.662716E-05
0.184,4.714829E-05
0.185,4.773073E-05
0.186,4.834383E-05
0.187,4.88343E-05
0.188,4.941675E-05
0.189,4.996853E-05
0.19,5.052032E-05
0.191,5.113342E-05
0.192,5.165455E-05
0.193,5.226765E-05
0.194,5.294205E-05
0.195,5.361646E-05
0.196,5.435217E-05
0.197,5.502658E-05
0.198,5.582361E-05
0.199,5.649801E-05
0.2,5.717242E-05
0.201,5.793879E-05
0.202,5.870515E-05
0.203,5.937956E-05
0.204,6.02379E-05
0.205,6.100427E-05
0.206,6.180129E-05
0.207,6.265963E-05
0.208,6.348731E-05
0.209,6.434564E-05
0.21,6.535726E-05
0.211,6.621559E-05
0.212,6.734982E-05
0.213,6.820816E-05
0.214,6.91278E-05
0.215,7.013941E-05
0.216,7.115101E-05
0.217,7.216263E-05
0.218,7.323555E-05
0.219,7.430847E-05
0.22,7.535073E-05
0.221,7.642365E-05
0.222,7.752722E-05
0.223,7.878407E-05
0.224,8.001026E-05
0.225,8.126711E-05
0.226,8.264658E-05
0.227,8.381146E-05
0.228,8.519093E-05
0.229,8.647843E-05
0.23,8.776593E-05
0.231,8.923736E-05
0.232,9.061684E-05
0.233,9.205761E-05
0.234,9.349838E-05
0.235,9.500048E-05
0.236,9.656387E-05
0.237,9.806595E-05
0.238,9.962935E-05
0.239,0.0001013154
0.24,0.0001029707
0.241,0.0001046874
0.242,0.0001064654
0.243,0.0001082127
0.244,0.0001101133
0.245,0.0001119526
0.246,0.0001137919
0.247,0.0001159071
0.248,0.0001178383
0.249,0.0001198309
0.25,0.0001219767
0.251,0.0001240306
0.252,0.0001262684
0.253,0.0001283836
0.254,0.0001305601
0.255,0.0001329511
0.256,0.0001352196
0.257,0.0001376107
0.258,0.0001400937
0.259,0.0001425461
0.26,0.0001451211
0.261,0.0001476348
0.262,0.0001502711
0.263,0.0001530607
0.264,0.000155697
0.265,0.0001585786
0.266,0.0001614908
0.267,0.0001643723
0.268,0.0001674991
0.269,0.0001706566
0.27,0.0001736914
0.271,0.0001770634
0.272,0.0001803128
0.273,0.0001836542
0.274,0.0001871795
0.275,0.0001907048
0.276,0.000194506
0.277,0.00019797
0.278,0.0002017712
0.279,0.0002057564
0.28,0.0002095575
0.281,0.000213696
0.282,0.0002178344
0.283,0.0002220341
0.284,0.000226571
0.285,0.000230924
0.286,0.0002354302
0.287,0.0002402431
0.288,0.0002450558
0.289,0.0002498993
0.29,0.0002550493
0.291,0.000260046
0.292,0.0002655333
0.293,0.0002708059
0.294,0.0002763851
0.295,0.0002822402
0.296,0.0002879113
0.297,0.0002940729
0.298,0.0003041076
0.299,0.000309932
0.3,0.000316676
0.301,0.0003231135
0.302,0.0003298576
0.303,0.0003372148
0.304,0.0003442654
0.305,0.0003516225
0.306,0.0003592863
0.307,0.0003672565
0.308,0.0003758399
0.309,0.0003841167
0.31,0.0003923935
0.311,0.0004015899
0.312,0.0004104798
0.313,0.0004199828
0.314,0.0004297924
0.315,0.0004399084
0.316,0.0004503311
0.317,0.0004610603
0.318,0.0004724026
0.319,0.0004840514
0.32,0.0004960068
0.321,0.0005088818
0.322,0.0005220634
0.323,0.0005355515
0.324,0.0005505724
0.325,0.0005652867
0.326,0.0005815338
0.327,0.000599007
0.328,0.0006170933
0.329,0.000637019
0.33,0.0006581708
0.331,0.0006808554
0.332,0.0007066055
0.333,0.0007335817
0.334,0.0007642366
0.335,0.0007982634
0.336,0.0008356623
0.337,0.0008782725
0.338,0.0009257875
0.339,0.0009788203
0.34,0.00104013
0.341,0.001107264
0.342,0.001183595
0.343,0.001271574
0.344,0.001368443
0.345,0.001480027
0.346,0.001606018
0.347,0.001745498
0.348,0.001904596
0.349,0.002080555
0.35,0.002275826
0.351,0.002492556
0.352,0.002728904
0.353,0.002985792
0.354,0.003292445
0.355,0.003583666
0.356,0.003890214
0.357,0.004205959
0.358,0.004537031
0.359,0.004874234
0.36,0.005211437
0.361,0.005554772
0.362,0.005901171
0.363,0.006250636
0.364,0.006603166
0.365,0.006952631
0.366,0.007308227
0.367,0.007660758
0.368,0.008013288
0.369,0.008371949
0.37,0.008727546
0.371,0.009089272
0.372,0.009454065
0.373,0.009809661
0.374,0.01017752
0.375,0.01054231
0.376,0.01090404
0.377,0.01127803
0.378,0.01164588
0.379,0.01201374
0.38,0.0123908
0.381,0.01276172
0.382,0.01313264
0.383,0.0135097
0.384,0.01388062
0.385,0.01426074
0.386,0.0146378
0.387,0.01501178
0.388,0.0153919
0.389,0.01576589
0.39,0.01614295
0.391,0.01652307
0.392,0.01690012
0.393,0.01727718
0.394,0.01765423
0.395,0.01803128
0.396,0.01840834
0.397,0.01878846
0.398,0.01915938
0.399,0.01953644
0.4,0.01991349
0.401,0.02028748
0.402,0.0206584
0.403,0.02103546
0.404,0.02140945
0.405,0.02178037
0.406,0.02215743
0.407,0.02252528
0.408,0.02289621
0.409,0.02327326
0.41,0.02365031
0.411,0.02402124
0.412,0.0243891
0.413,0.02475389
0.414,0.02512788
0.415,0.0254896
0.416,0.0258544
0.417,0.02622839
0.418,0.02657785
0.419,0.02694264
0.42,0.02731663
0.421,0.02766916
0.422,0.02803396
0.423,0.02839875
0.424,0.02874821
0.425,0.02910994
0.426,0.0294686
0.427,0.02981807
0.428,0.03017366
0.429,0.03129975
0.43,0.03163695
0.431,0.03200481
0.432,0.03234201
0.433,0.03267921
0.434,0.03301642
0.435,0.03332296
0.436,0.03369082
0.437,0.03402802
0.438,0.03430392
0.439,0.03464112
0.44,0.03494767
0.441,0.03525422
0.442,0.03553011
0.443,0.03583666
0.444,0.03611255
0.445,0.03638845
0.446,0.03660303
0.447,0.03687892
0.448,0.03709351
0.449,0.03730809
0.45,0.03752267
0.451,0.03770661
0.452,0.03789053
0.453,0.03804381
0.454,0.03819708
0.455,0.0383197
0.456,0.03844232
0.457,0.03853428
0.458,0.03859559
0.459,0.03862625
0.46,0.0386569
0.461,0.03862625
0.462,0.03859559
0.463,0.03853428
0.464,0.03844232
0.465,0.03835035
0.466,0.03819708
0.467,0.0379825
0.468,0.03779857
0.469,0.03755333
0.47,0.03724678
0.471,0.03694023
0.472,0.03657238
0.473,0.03623517
0.474,0.035806
0.475,0.03537684
0.476,0.03491702
0.477,0.03442654
0.478,0.03390541
0.479,0.03338427
0.48,0.03283248
0.481,0.0322807
0.482,0.03169826
0.483,0.03114647
0.484,0.03056403
0.485,0.03001224
0.486,0.0294298
0.487,0.02890867
0.488,0.02841819
0.489,0.02792772
0.49,0.02746789
0.491,0.02703872
0.492,0.02667087
0.493,0.02633366
0.494,0.02605777
0.495,0.02581253
0.496,0.02559795
0.497,0.02544468
0.498,0.02535271
0.499,0.02526074
0.5,0.02523009
0.501,0.02526074
0.502,0.0252914
0.503,0.02535271
0.504,0.02544468
0.505,0.02556729
0.506,0.02572057
0.507,0.0259045
0.508,0.02605777
0.509,0.02630301
0.51,0.02651759
0.511,0.02676283
0.512,0.02700807
0.513,0.02731462
0.514,0.02759051
0.515,0.02786641
0.516,0.02817295
0.517,0.0284795
0.518,0.0288167
0.519,0.02915391
0.52,0.02946045
0.521,0.02982831
0.522,0.03016552
0.523,0.03050272
0.524,0.03090123
0.525,0.03123844
0.526,0.03160629
0.527,0.03200481
0.528,0.03237266
0.529,0.03274052
0.53,0.03313904
0.531,0.03350689
0.532,0.03390541
0.533,0.03430392
0.534,0.03467178
0.535,0.03507029
0.536,0.0354688
0.537,0.03589797
0.538,0.03629648
0.539,0.036695
0.54,0.03709351
0.541,0.03752267
0.542,0.03792119
0.543,0.03835035
0.544,0.03877952
0.545,0.03917804
0.546,0.0396072
0.547,0.04003637
0.548,0.04043488
0.549,0.04086405
0.55,0.04129322
0.551,0.04172239
0.552,0.04215155
0.553,0.04258072
0.554,0.04300989
0.555,0.04343906
0.556,0.04386823
0.557,0.04429739
0.558,0.04475721
0.559,0.04518638
0.56,0.04561555
0.561,0.04607537
0.562,0.04650454
0.563,0.04693371
0.564,0.04739353
0.565,0.0478227
0.566,0.04828252
0.567,0.04871169
0.568,0.04914085
0.569,0.04960068
0.57,0.05002984
0.571,0.05048966
0.572,0.05094949
0.573,0.05137866
0.574,0.05183848
0.575,0.0522983
0.576,0.05272747
0.577,0.05318729
0.578,0.05364711
0.579,0.05410693
0.58,0.05456676
0.581,0.05502658
0.582,0.05545575
0.583,0.05591557
0.584,0.05637539
0.585,0.05680456
0.586,0.05723373
0.587,0.05766289
0.588,0.05812272
0.589,0.05855189
0.59,0.05898106
0.591,0.05944088
0.592,0.0599007
0.593,0.06032987
0.594,0.06082034
0.595,0.06128017
0.596,0.06173999
0.597,0.06223046
0.598,0.06272095
0.599,0.06318077
0.6,0.06364059
0.601,0.06413107
0.602,0.06459089
0.603,0.06505071
0.604,0.06554119
0.605,0.06597035
0.606,0.06646083
0.607,0.06692065
0.608,0.06738048
0.609,0.06787095
0.61,0.06833078
0.611,0.0687906
0.612,0.06928107
0.613,0.06971025
0.614,0.07020072
0.615,0.0706912
0.616,0.07115102
0.617,0.07161084
0.618,0.07210132
0.619,0.07256114
0.62,0.07305162
0.621,0.07351144
0.622,0.07397126
0.623,0.07446174
0.624,0.0748909
0.625,0.07538139
0.626,0.07584121
0.627,0.07630103
0.628,0.07679151
0.629,0.07725133
0.63,0.07774181
0.631,0.07823228
0.632,0.07869211
0.633,0.07915193
0.634,0.07964241
0.635,0.08010223
0.636,0.08059271
0.637,0.08108319
0.638,0.08151235
0.639,0.08200283
0.64,0.08249331
0.641,0.08295313
0.642,0.0834436
0.643,0.08390342
0.644,0.0843939
0.645,0.08488438
0.646,0.0853442
0.647,0.08583468
0.648,0.08632516
0.649,0.08678498
0.65,0.08727546
0.651,0.08776593
0.652,0.08822576
0.653,0.08868558
0.654,0.08917606
0.655,0.08966654
0.656,0.09012636
0.657,0.09061684
0.658,0.09107666
0.659,0.09156714
0.66,0.09202696
0.661,0.09251743
0.662,0.09300791
0.663,0.09346773
0.664,0.09392755
0.665,0.09444869
0.666,0.09487786
0.667,0.09536833
0.668,0.0958588
0.669,0.09631863
0.67,0.09680911
0.671,0.09726893
0.672,0.09772875
0.673,0.09824988
0.674,0.09867906
0.675,0.09916953
0.676,0.09966001
0.677,0.1001198
0.678,0.1006103
0.679,0.1011008
0.68,0.1015606
0.681,0.1020511
0.682,0.1025416
0.683,0.1030014
0.684,0.1034919
0.685,0.1039823
0.686,0.1044422
0.687,0.1049326
0.688,0.1054231
0.689,0.1058829
0.69,0.1064041
0.691,0.1068639
0.692,0.1073544
0.693,0.1078142
0.694,0.108274
0.695,0.1087951
0.696,0.1092856
0.697,0.1097761
0.698,0.1102666
0.699,0.1107264
0.7,0.110849
0.6990001,0.1104198
0.6980001,0.1099294
0.6970001,0.1094389
0.6960001,0.1090097
0.6950001,0.1084886
0.6940001,0.1080288
0.6930001,0.1075689
0.6920001,0.1070478
0.6910001,0.1066186
0.6900001,0.1061282
0.6890001,0.1056377
0.6880001,0.1051779
0.6870001,0.104718
0.6860001,0.1042276
0.6850001,0.1037678
0.6840001,0.1032773
0.6830001,0.1028175
0.6820001,0.1023576
0.6810001,0.1018672
0.6800001,0.1014073
0.6790001,0.1009169
0.6780001,0.100457
0.6770001,0.09996656
0.6760001,0.09950673
0.6750001,0.09901626
0.6740001,0.09855644
0.6730001,0.09809661
0.6720001,0.09760614
0.6710001,0.09714631
0.6700001,0.09665584
0.6690001,0.09619602
0.6680001,0.09573619
0.6670001,0.09527637
0.6660001,0.09478589
0.6650001,0.09432607
0.6640001,0.09383559
0.6630001,0.09337576
0.6620001,0.09288529
0.6610001,0.09242547
0.6600001,0.09196565
0.6590001,0.09147517
0.6580001,0.09101535
0.6570001,0.09055553
0.6560001,0.09006505
0.6550001,0.08957457
0.6540001,0.08914541
0.6530001,0.08865493
0.6520001,0.08816445
0.6510001,0.08773528
0.6500001,0.0872448
0.6490001,0.08675433
0.6480001,0.0862945
0.6470001,0.08583468
0.6460001,0.0853442
0.6450001,0.08488438
0.6440001,0.0843939
0.6430001,0.08393408
0.6420001,0.08347426
0.6410001,0.08298378
0.6400001,0.08252396
0.6390001,0.08206414
0.6380001,0.08160432
0.6370001,0.0811445
0.6360001,0.08068467
0.6350001,0.0801942
0.6340001,0.07973437
0.6330001,0.07927455
0.6320001,0.07881473
0.6310001,0.0783549
0.6300001,0.07786443
0.6290001,0.0774046
0.6280001,0.07691412
0.6270001,0.0764543
0.6260001,0.07599448
0.6250001,0.075504
0.6240001,0.07504418
0.6230001,0.07458436
0.6220001,0.07412454
0.6210001,0.07366472
0.6200001,0.0732049
0.6190001,0.07271441
0.6180001,0.07225459
0.6170001,0.07179477
0.6160001,0.07133495
0.6150001,0.07087513
0.6140001,0.0704153
0.6130001,0.06992482
0.6120001,0.069465
0.6110001,0.06900518
0.6100001,0.06854536
0.6090001,0.06808554
0.6080001,0.06762572
0.6070001,0.06713524
0.6060001,0.06670607
0.6050001,0.0662156
0.6040001,0.06575577
0.6030001,0.0653266
0.6020001,0.06486678
0.6010001,0.0643763
0.6000001,0.06394713
0.5990001,0.06345665
0.5980001,0.06302749
0.5970001,0.06256767
0.5960001,0.06207719
0.5950001,0.06164802
0.5940001,0.0611882
0.5930001,0.06069772
0.5920001,0.06026856
0.5910001,0.05977808
0.5900001,0.05934891
0.5890001,0.05888909
0.5880001,0.05842927
0.5870001,0.05796945
0.5860001,0.05750962
0.5850001,0.0570498
0.5840001,0.05662064
0.5830001,0.05616081
0.5820001,0.05570099
0.5810001,0.05524116
0.5800001,0.05478134
0.5790001,0.05432152
0.5780001,0.05389235
0.5770001,0.05343253
0.5760001,0.0529727
0.5750001,0.05251288
0.5740001,0.05208372
0.5730001,0.05159324
0.5720001,0.05116407
0.5710001,0.05070425
0.5700001,0.05024443
0.5690001,0.04981526
0.5680001,0.04935544
0.5670001,0.04892627
0.5660001,0.04846645
0.5650001,0.04800662
0.5640001,0.04757746
0.5630001,0.04714829
0.5620001,0.04665781
0.5610001,0.04622864
0.5600001,0.04579948
0.5590001,0.04533966
0.5580001,0.04491049
0.5570001,0.04445067
0.5560001,0.0440215
0.5550001,0.04359233
0.5540001,0.04313251
0.5530001,0.04270334
0.5520001,0.04224352
0.5510001,0.04181435
0.5500001,0.04138518
0.5490001,0.04092536
0.5480001,0.04049619
0.5470001,0.04006703
0.5460001,0.03963786
0.5450001,0.03917804
0.5440001,0.03874887
0.5430001,0.0383197
0.5420001,0.03785988
0.5410001,0.03743071
0.5400001,0.03700154
0.5390001,0.03657238
0.5380001,0.03614321
0.5370001,0.03571404
0.5360001,0.03528487
0.5350001,0.0348557
0.5340001,0.03442654
0.5330001,0.03402802
0.5320001,0.03359886
0.5310001,0.03316969
0.5300001,0.03274052
0.5290001,0.03231135
0.5280001,0.03188219
0.5270001,0.03148368
0.5260001,0.03105451
0.5250001,0.03062534
0.5240001,0.03019617
0.5230001,0.02979766
0.5220001,0.02936849
0.5210001,0.02896998
0.5200001,0.02854081
0.5190001,0.0281423
0.5180001,0.02771313
0.5170001,0.02731462
0.5160001,0.02688545
0.5150001,0.02648694
0.5140001,0.02608843
0.5130001,0.02568991
0.5120001,0.02526074
0.5110001,0.02483158
0.5100001,0.02446372
0.5090001,0.02406521
0.5080001,0.02363604
0.5070001,0.02326818
0.5060001,0.02286967
0.5050001,0.02247116
0.5040001,0.02207264
0.5030001,0.02167413
0.5020001,0.02127562
0.5010001,0.0208771
0.5000001,0.02050925
0.4990001,0.02011073
0.4980001,0.01974287
0.4970001,0.01934436
0.4960001,0.01897651
0.4950001,0.01857799
0.4940001,0.01821013
0.4930001,0.01784228
0.4920001,0.01747442
0.4910001,0.01710656
0.4900001,0.0167387
0.4890001,0.01637085
0.4880001,0.01600299
0.4870001,0.01563513
0.4860001,0.01526727
0.4850001,0.01493007
0.4840001,0.01456221
0.4830001,0.01419435
0.4820001,0.01385715
0.4810001,0.01348929
0.4800001,0.01315209
0.4790001,0.01231109
0.4780001,0.01198002
0.4770001,0.01164588
0.4760001,0.01131788
0.4750001,0.01099294
0.4740001,0.01066799
0.4730001,0.01034612
0.4720001,0.01002731
0.4710001,0.00971463
0.4700001,0.009405017
0.4690001,0.009095403
0.4680001,0.008791921
0.4670001,0.008491503
0.4660001,0.008191085
0.4650001,0.00790293
0.4640001,0.00761171
0.4630001,0.007320489
0.4620001,0.007044595
0.4610001,0.006762571
0.4600001,0.006486678
0.4590001,0.006223046
0.4580001,0.005956349
0.4570001,0.005695784
0.4560001,0.005441349
0.4550001,0.005183848
0.4540001,0.004941675
0.4530001,0.004699502
0.4520001,0.004460394
0.4510001,0.004230483
0.4500001,0.004000572
0.4490001,0.003776791
0.4480001,0.003559142
0.4470001,0.003344558
0.4460001,0.003139171
0.4450001,0.002936849
0.4440001,0.002734527
0.4430001,0.002547533
0.4420001,0.002357473
0.4410001,0.002173544
0.4400001,0.002001877
0.4390001,0.001827144
0.4380001,0.001664674
0.4370001,0.001505269
0.4360001,0.001345864
0.4350001,0.00119872
0.4340001,0.001020817
0.4330001,0.0008804183
0.4320001,0.0007479895
0.4310001,0.0006161737
0.4300001,0.0004929413
0.4290001,0.0003718548
0.4280001,0.0002547533
0.4270001,0.0001477679
0.4260001,3.833021E-05
0.4250001,-6.740879E-05
0.4240001,-0.0001611513
0.4230001,-0.0002585416
0.4220001,-0.0003463879
0.4210001,-0.0004288494
0.4200001,-0.000512537
0.4190001,-0.0005867218
0.4180001,-0.0006621326
0.4170001,-0.0007341714
0.4160001,-0.0008006924
0.4150001,-0.0008684396
0.4140001,-0.0009288296
0.4130001,-0.0009873803
0.4120001,-0.001045011
0.4110001,-0.001096818
0.4100001,-0.001155982
0.4090001,-0.001210241
0.4080001,-0.001252545
0.4070001,-0.001298833
0.4060001,-0.001339298
0.4050001,-0.001380375
0.4040001,-0.001422679
0.4030001,-0.001458852
0.4020001,-0.001497783
0.4010001,-0.001534569
0.4000001,-0.00156645
0.3990001,-0.001604462
0.3980001,-0.001636343
0.3970001,-0.001669144
0.3960001,-0.001703477
0.3950001,-0.001731986
0.3940001,-0.001764174
0.3930001,-0.001793602
0.3920001,-0.001822111
0.3910001,-0.001853992
0.3900001,-0.001882501
0.3890001,-0.001911623
0.3880001,-0.001942278
0.3870001,-0.001967415
0.3860001,-0.001999603
0.3850001,-0.002027805
0.3840001,-0.002052635
0.3830001,-0.002086356
0.3820001,-0.002112719
0.3810001,-0.002140922
0.3800001,-0.002174335
0.3790001,-0.002200698
0.3780001,-0.002232886
0.3770001,-0.002265073
0.3760001,-0.002292663
0.3750001,-0.00232577
0.3740001,-0.002356425
0.3730001,-0.002388306
0.3720001,-0.002422026
0.3710001,-0.00245452
0.3700001,-0.002490386
0.3690001,-0.002523494
0.3680001,-0.002555681
0.3670001,-0.002595532
0.3660001,-0.002628333
0.3650001,-0.002665425
0.3640001,-0.002706809
0.3630001,-0.002740836
0.3620001,-0.002781607
0.3610001,-0.002822072
0.3600001,-0.002859164
0.3590001,-0.002904227
0.3580001,-0.002948063
0.3570001,-0.002988528
0.3560001,-0.00303359
0.3550001,-0.003040842
0.3540001,-0.003083759
