EXPID. 0855
[电化学]: CV : 0 >> 0.7 >> 0 >> 0(V) @ 0.01(V/s) X 10(Seg)
起始电位 (V),0
上限电位 (V),0.7
下限电位 (V),0
终止电位 (V),0
扫速 (V/s),0.01
电解液 信息:
KOH,1
0.001,0.00129855
0.002,0.001352196
0.003,0.001405842
0.004,0.00146194
0.005,0.001518652
0.006,0.001577509
0.007,0.001638512
0.008,0.001701355
0.009,0.001766649
0.01,0.001833783
0.011,0.001902757
0.012,0.001975715
0.013,0.002049593
0.014,0.002126231
0.015,0.002205627
0.016,0.002285636
0.017,0.002370856
0.018,0.00245669
0.019,0.002544669
0.02,0.00263694
0.021,0.002729518
0.022,0.002824547
0.023,0.002924176
0.024,0.003023804
0.025,0.003160629
0.026,0.003264856
0.027,0.003372148
0.028,0.003482505
0.029,0.003592863
0.03,0.003709351
0.031,0.003825839
0.032,0.003945393
0.033,0.004068012
0.034,0.004190631
0.035,0.004316316
0.036,0.004448132
0.037,0.004573816
0.038,0.004708698
0.039,0.004846645
0.04,0.004981526
0.041,0.005119473
0.042,0.00526355
0.043,0.005404562
0.044,0.005554772
0.045,0.005701914
0.046,0.005852123
0.047,0.006005398
0.048,0.006161737
0.049,0.006318076
0.05,0.006480547
0.051,0.006639952
0.052,0.006805488
0.053,0.006971024
0.054,0.007142691
0.055,0.007314358
0.056,0.007486025
0.057,0.007663823
0.058,0.007844687
0.059,0.008022484
0.06,0.008206413
0.061,0.008390343
0.062,0.008577337
0.063,0.008770462
0.064,0.008963588
0.065,0.009159779
0.066,0.009359035
0.067,0.009555226
0.068,0.009760614
0.069,0.009962935
0.07,0.01016832
0.071,0.01038291
0.072,0.01059442
0.073,0.01080901
0.074,0.01103279
0.075,0.01125044
0.076,0.01147115
0.077,0.01170106
0.078,0.01193097
0.079,0.01216089
0.08,0.01239999
0.081,0.0126391
0.082,0.01287821
0.083,0.01312345
0.084,0.01337482
0.085,0.01361699
0.086,0.01387756
0.087,0.01413199
0.088,0.01438949
0.089,0.01465619
0.09,0.01492289
0.091,0.01518345
0.092,0.01545934
0.093,0.01573524
0.094,0.01601113
0.095,0.01629622
0.096,0.01658131
0.097,0.01686947
0.098,0.01716069
0.099,0.01745497
0.1,0.01774926
0.101,0.01804968
0.102,0.01835622
0.103,0.01866277
0.104,0.01897239
0.105,0.019282
0.106,0.01959161
0.107,0.01990736
0.108,0.02022311
0.109,0.02053885
0.11,0.02085766
0.111,0.02117647
0.112,0.02148915
0.113,0.02181409
0.114,0.02213597
0.115,0.02244865
0.116,0.02276745
0.117,0.0230832
0.118,0.02339282
0.119,0.0236963
0.12,0.02399671
0.121,0.02429713
0.122,0.02458835
0.123,0.02488264
0.124,0.0251708
0.125,0.02544669
0.126,0.02573178
0.127,0.02600767
0.128,0.02627743
0.129,0.02656252
0.13,0.02682922
0.131,0.02709592
0.132,0.02737488
0.133,0.02763238
0.134,0.02790827
0.135,0.02818416
0.136,0.02843553
0.137,0.02871449
0.138,0.02898425
0.139,0.02923869
0.14,0.02951765
0.141,0.02978434
0.142,0.03004491
0.143,0.03111582
0.144,0.03136105
0.145,0.03163695
0.146,0.03188219
0.147,0.03215808
0.148,0.03243398
0.149,0.03267921
0.15,0.03292445
0.151,0.03320035
0.152,0.03344558
0.153,0.03372148
0.154,0.03399737
0.155,0.03424261
0.156,0.03448785
0.157,0.03473309
0.158,0.03497833
0.159,0.03522356
0.16,0.0354688
0.161,0.03571404
0.162,0.03595928
0.163,0.03617386
0.164,0.0364191
0.165,0.03666434
0.166,0.03687892
0.167,0.03712416
0.168,0.03733874
0.169,0.03755333
0.17,0.03779857
0.171,0.03801315
0.172,0.03822774
0.173,0.03847298
0.174,0.03868756
0.175,0.03887149
0.176,0.03908607
0.177,0.03930065
0.178,0.03948459
0.179,0.03969917
0.18,0.0398831
0.181,0.04006703
0.182,0.04025095
0.183,0.04046554
0.184,0.04064947
0.185,0.04083339
0.186,0.04101732
0.187,0.04120126
0.188,0.04138518
0.189,0.04156911
0.19,0.04175304
0.191,0.04193697
0.192,0.0421209
0.193,0.04230483
0.194,0.04248876
0.195,0.04267269
0.196,0.04282596
0.197,0.04300989
0.198,0.04319382
0.199,0.04337775
0.2,0.04356168
0.201,0.0437456
0.202,0.04389888
0.203,0.04408281
0.204,0.04426674
0.205,0.04442001
0.206,0.0446346
0.207,0.04478787
0.208,0.04494114
0.209,0.04515573
0.21,0.045309
0.211,0.04546228
0.212,0.04567686
0.213,0.04583013
0.214,0.04598341
0.215,0.04616734
0.216,0.04632061
0.217,0.04650454
0.218,0.04665781
0.219,0.04681109
0.22,0.04699502
0.221,0.04711764
0.222,0.04727091
0.223,0.04745484
0.224,0.04757746
0.225,0.04773073
0.226,0.04788401
0.227,0.04803728
0.228,0.0481599
0.229,0.04831317
0.23,0.04846645
0.231,0.04858907
0.232,0.04874234
0.233,0.04886496
0.234,0.04898758
0.235,0.0491102
0.236,0.04923282
0.237,0.04935544
0.238,0.04947806
0.239,0.04960068
0.24,0.04969264
0.241,0.0497846
0.242,0.04990723
0.243,0.05002984
0.244,0.05009115
0.245,0.05021377
0.246,0.05030574
0.247,0.05036705
0.248,0.05045901
0.249,0.05055097
0.25,0.05061228
0.251,0.05067359
0.252,0.05076556
0.253,0.05079622
0.254,0.05088818
0.255,0.05091884
0.256,0.05094949
0.257,0.05104145
0.258,0.05104145
0.259,0.05107211
0.26,0.05113342
0.261,0.05113342
0.262,0.05116407
0.263,0.05119473
0.264,0.05116407
0.265,0.05116407
0.266,0.05116407
0.267,0.05113342
0.268,0.05110276
0.269,0.05110276
0.27,0.05104145
0.271,0.0510108
0.272,0.05094949
0.273,0.05085753
0.274,0.05079622
0.275,0.05070425
0.276,0.05061228
0.277,0.05052032
0.278,0.0503977
0.279,0.05027508
0.28,0.05012181
0.281,0.04999919
0.282,0.04984592
0.283,0.04969264
0.284,0.04950871
0.285,0.04929413
0.286,0.0491102
0.287,0.04886496
0.288,0.04861972
0.289,0.04837449
0.29,0.04809859
0.291,0.0478227
0.292,0.04751615
0.293,0.0472096
0.294,0.04684174
0.295,0.04647389
0.296,0.04613668
0.297,0.04570751
0.298,0.045309
0.299,0.04491049
0.3,0.04442001
0.301,0.04396019
0.302,0.04346971
0.303,0.04294858
0.304,0.0423968
0.305,0.04184501
0.306,0.04126256
0.307,0.04068012
0.308,0.04006703
0.309,0.03945393
0.31,0.03884083
0.311,0.03813577
0.312,0.03746137
0.313,0.03678696
0.314,0.0360819
0.315,0.03534618
0.316,0.03467178
0.317,0.03393606
0.318,0.033231
0.319,0.03252594
0.32,0.03179022
0.321,0.03108516
0.322,0.0303801
0.323,0.02967504
0.324,0.02896998
0.325,0.02829557
0.326,0.02759051
0.327,0.02688545
0.328,0.02614973
0.329,0.02541402
0.33,0.0246783
0.331,0.02391193
0.332,0.02320687
0.333,0.0224405
0.334,0.02173544
0.335,0.02103038
0.336,0.02035597
0.337,0.01971222
0.338,0.01909912
0.339,0.01848603
0.34,0.01790359
0.341,0.01738245
0.342,0.01683067
0.343,0.01637085
0.344,0.01591102
0.345,0.01548185
0.346,0.01508334
0.347,0.01468483
0.348,0.01431697
0.349,0.01397977
0.35,0.01364256
0.351,0.01336667
0.352,0.0125594
0.353,0.01229883
0.354,0.01205666
0.355,0.01182368
0.356,0.01160603
0.357,0.01139758
0.358,0.01120139
0.359,0.01101746
0.36,0.01084579
0.361,0.01068639
0.362,0.01051779
0.363,0.01037371
0.364,0.0102327
0.365,0.01008862
0.366,0.009966001
0.367,0.009846447
0.368,0.009720762
0.369,0.009622667
0.37,0.009509244
0.371,0.009411148
0.372,0.009316118
0.373,0.009221088
0.374,0.009135255
0.375,0.009049421
0.376,0.008969719
0.377,0.00888695
0.378,0.008822575
0.379,0.008749004
0.38,0.008672367
0.381,0.008617188
0.382,0.008555878
0.383,0.008488438
0.384,0.008436324
0.385,0.008384212
0.386,0.008322901
0.387,0.008270789
0.388,0.008230938
0.389,0.008175759
0.39,0.008132842
0.391,0.008099122
0.392,0.008050074
0.393,0.008010223
0.394,0.007973436
0.395,0.007936651
0.396,0.007899866
0.397,0.007869211
0.398,0.00783549
0.399,0.00780177
0.4,0.007771115
0.401,0.007746591
0.402,0.007712871
0.403,0.007688347
0.404,0.007663823
0.405,0.007633169
0.406,0.00761171
0.407,0.007590252
0.408,0.007562662
0.409,0.007553466
0.41,0.007538138
0.411,0.007513615
0.412,0.007504418
0.413,0.007476829
0.414,0.007458436
0.415,0.007452305
0.416,0.00742165
0.417,0.007418585
0.418,0.007403257
0.419,0.007381798
0.42,0.007381798
0.421,0.007366471
0.422,0.007351144
0.423,0.007348078
0.424,0.007335817
0.425,0.007320489
0.426,0.007320489
0.427,0.007308227
0.428,0.007302096
0.429,0.007295965
0.43,0.0072929
0.431,0.007283703
0.432,0.007277572
0.433,0.007277572
0.434,0.007271441
0.435,0.00726531
0.436,0.007268376
0.437,0.007262245
0.438,0.007259179
0.439,0.00726531
0.44,0.007259179
0.441,0.007262245
0.442,0.00726531
0.443,0.007262245
0.444,0.007268376
0.445,0.007271441
0.446,0.007271441
0.447,0.007274507
0.448,0.007283703
0.449,0.007286769
0.45,0.007289834
0.451,0.007302096
0.452,0.007311293
0.453,0.007311293
0.454,0.00732662
0.455,0.007335817
0.456,0.007338882
0.457,0.007357275
0.458,0.007366471
0.459,0.007375667
0.46,0.007397126
0.461,0.007409388
0.462,0.00742165
0.463,0.007443109
0.464,0.00745537
0.465,0.007473763
0.466,0.007498287
0.467,0.007513615
0.468,0.007541204
0.469,0.007562662
0.47,0.007587186
0.471,0.00761171
0.472,0.007642365
0.473,0.00767302
0.474,0.007703674
0.475,0.00774046
0.476,0.007774181
0.477,0.007807901
0.478,0.007853882
0.479,0.0078968
0.48,0.007936651
0.481,0.00799183
0.482,0.008037812
0.483,0.008086859
0.484,0.008151235
0.485,0.008200282
0.486,0.008261592
0.487,0.008332099
0.488,0.008393408
0.489,0.00847311
0.49,0.008549747
0.491,0.008623319
0.492,0.008715284
0.493,0.008804183
0.494,0.008896147
0.495,0.009000373
0.496,0.009101534
0.497,0.009208826
0.498,0.009322249
0.499,0.009444868
0.5,0.009567488
0.501,0.009693173
0.502,0.009831119
0.503,0.009969066
0.504,0.01011008
0.505,0.01026948
0.506,0.01042582
0.507,0.01058523
0.508,0.01075689
0.509,0.01092856
0.51,0.01110942
0.511,0.01129948
0.512,0.01148954
0.513,0.01169187
0.514,0.01189112
0.515,0.01209651
0.516,0.01232029
0.517,0.01253487
0.518,0.01275865
0.519,0.0129947
0.52,0.01322461
0.521,0.01346372
0.522,0.01371508
0.523,0.01396339
0.524,0.01422089
0.525,0.01448146
0.526,0.01474815
0.527,0.01501485
0.528,0.01529074
0.529,0.01557583
0.53,0.01585479
0.531,0.01613988
0.532,0.01643723
0.533,0.01672846
0.534,0.01702581
0.535,0.01733542
0.536,0.0176389
0.537,0.01794852
0.538,0.01826119
0.539,0.01858001
0.54,0.01890188
0.541,0.01922376
0.542,0.01955483
0.543,0.0198859
0.544,0.02021698
0.545,0.02056031
0.546,0.02089751
0.547,0.02124085
0.548,0.02158725
0.549,0.02192751
0.55,0.02228311
0.551,0.02262644
0.552,0.02298817
0.553,0.02335296
0.554,0.02370243
0.555,0.02407335
0.556,0.02444427
0.557,0.02479987
0.558,0.02517693
0.559,0.02554785
0.56,0.02590958
0.561,0.02629889
0.562,0.02667288
0.563,0.02704687
0.564,0.02744538
0.565,0.02781937
0.566,0.02819949
0.567,0.02859187
0.568,0.02897506
0.569,0.02936438
0.57,0.02975675
0.571,0.03014914
0.572,0.0313304
0.573,0.03169826
0.574,0.03209677
0.575,0.03249529
0.576,0.0328938
0.577,0.03332296
0.578,0.03372148
0.579,0.03415065
0.58,0.03454916
0.581,0.03494767
0.582,0.03537684
0.583,0.03577535
0.584,0.03620452
0.585,0.03663369
0.586,0.0370322
0.587,0.03743071
0.588,0.03789053
0.589,0.03828905
0.59,0.03871821
0.591,0.03917804
0.592,0.0396072
0.593,0.04000572
0.594,0.04043488
0.595,0.04086405
0.596,0.04129322
0.597,0.04172239
0.598,0.04215155
0.599,0.04258072
0.6,0.04300989
0.601,0.04343906
0.602,0.04389888
0.603,0.04432805
0.604,0.04475721
0.605,0.04518638
0.606,0.04561555
0.607,0.04607537
0.608,0.04650454
0.609,0.04696436
0.61,0.04739353
0.611,0.0478227
0.612,0.04828252
0.613,0.04871169
0.614,0.04917151
0.615,0.04960068
0.616,0.0500605
0.617,0.05048966
0.618,0.05094949
0.619,0.05137866
0.62,0.05183848
0.621,0.0522983
0.622,0.05275812
0.623,0.05318729
0.624,0.05364711
0.625,0.05413759
0.626,0.05456676
0.627,0.05502658
0.628,0.05548641
0.629,0.05594623
0.63,0.05637539
0.631,0.05689653
0.632,0.05732569
0.633,0.05778552
0.634,0.05827599
0.635,0.05870516
0.636,0.05916498
0.637,0.05965546
0.638,0.06008463
0.639,0.06057511
0.64,0.06103493
0.641,0.06149475
0.642,0.06195457
0.643,0.06244505
0.644,0.06287422
0.645,0.06333404
0.646,0.06382452
0.647,0.06428434
0.648,0.06474417
0.649,0.06523464
0.65,0.06566381
0.651,0.06612363
0.652,0.06661411
0.653,0.06707393
0.654,0.06753375
0.655,0.06802423
0.656,0.06845339
0.657,0.06894387
0.658,0.0694037
0.659,0.06986352
0.66,0.07035399
0.661,0.07084447
0.662,0.07130429
0.663,0.07176412
0.664,0.07225459
0.665,0.07271441
0.666,0.07317424
0.667,0.07363406
0.668,0.07412454
0.669,0.07458436
0.67,0.07507484
0.671,0.07556532
0.672,0.07599448
0.673,0.07648496
0.674,0.07697544
0.675,0.07743526
0.676,0.07792573
0.677,0.07838555
0.678,0.07887604
0.679,0.07933586
0.68,0.07982634
0.681,0.08034747
0.682,0.08077663
0.683,0.08126711
0.684,0.08175759
0.685,0.08221742
0.686,0.08267724
0.687,0.08316771
0.688,0.08362754
0.689,0.08408736
0.69,0.08460849
0.691,0.08506831
0.692,0.08555879
0.693,0.08604927
0.694,0.08650909
0.695,0.08699957
0.696,0.08749004
0.697,0.08794986
0.698,0.08844034
0.699,0.08893082
0.7,0.08902278
0.6990001,0.08853231
0.6980001,0.08810314
0.6970001,0.08764332
0.6960001,0.0871835
0.6950001,0.08675433
0.6940001,0.0862945
0.6930001,0.08583468
0.6920001,0.08537485
0.6910001,0.08491503
0.6900001,0.08445521
0.6890001,0.08399539
0.6880001,0.08353557
0.6870001,0.08307575
0.6860001,0.08264658
0.6850001,0.08218676
0.6840001,0.08172693
0.6830001,0.08126711
0.6820001,0.08083794
0.6810001,0.08037812
0.6800001,0.0799183
0.6790001,0.07945848
0.6780001,0.07902931
0.6770001,0.07856949
0.6760001,0.07810967
0.6750001,0.0776805
0.6740001,0.07719002
0.6730001,0.07676085
0.6720001,0.07630103
0.6710001,0.07584121
0.6700001,0.07538139
0.6690001,0.07495221
0.6680001,0.07449239
0.6670001,0.07403257
0.6660001,0.07357275
0.6650001,0.07311293
0.6640001,0.07268376
0.6630001,0.07222394
0.6620001,0.07176412
0.6610001,0.07133495
0.6600001,0.07087513
0.6590001,0.0704153
0.6580001,0.06998613
0.6570001,0.06952631
0.6560001,0.06906649
0.6550001,0.06863733
0.6540001,0.06817751
0.6530001,0.06771768
0.6520001,0.06728851
0.6510001,0.06685934
0.6500001,0.06636887
0.6490001,0.0659397
0.6480001,0.06551053
0.6470001,0.06505071
0.6460001,0.06462154
0.6450001,0.06416172
0.6440001,0.06373256
0.6430001,0.06327273
0.6420001,0.06284356
0.6410001,0.06238374
0.6400001,0.06195457
0.6390001,0.06149475
0.6380001,0.06106558
0.6370001,0.06060576
0.6360001,0.06017659
0.6350001,0.05974742
0.6340001,0.0592876
0.6330001,0.05885844
0.6320001,0.05839861
0.6310001,0.05796945
0.6300001,0.05754028
0.6290001,0.05708046
0.6280001,0.05665129
0.6270001,0.05622212
0.6260001,0.0557623
0.6250001,0.05533313
0.6240001,0.05490396
0.6230001,0.05444414
0.6220001,0.05401497
0.6210001,0.0535858
0.6200001,0.05312598
0.6190001,0.05272747
0.6180001,0.05226765
0.6170001,0.05183848
0.6160001,0.05140931
0.6150001,0.05098015
0.6140001,0.05052032
0.6130001,0.05012181
0.6120001,0.04969264
0.6110001,0.04926347
0.6100001,0.04883431
0.6090001,0.04837449
0.6080001,0.04794532
0.6070001,0.0475468
0.6060001,0.04708698
0.6050001,0.04665781
0.6040001,0.0462593
0.6030001,0.04579948
0.6020001,0.04540097
0.6010001,0.0449718
0.6000001,0.04454263
0.5990001,0.04414412
0.5980001,0.0436843
0.5970001,0.04325513
0.5960001,0.04285662
0.5950001,0.04242745
0.5940001,0.04199828
0.5930001,0.04156911
0.5920001,0.0411706
0.5910001,0.04074143
0.5900001,0.04034292
0.5890001,0.03991375
0.5880001,0.03948459
0.5870001,0.03908607
0.5860001,0.0386569
0.5850001,0.03822774
0.5840001,0.03782922
0.5830001,0.03740006
0.5820001,0.03700154
0.5810001,0.03657238
0.5800001,0.03617386
0.5790001,0.03577535
0.5780001,0.03534618
0.5770001,0.03494767
0.5760001,0.03454916
0.5750001,0.03415065
0.5740001,0.03375213
0.5730001,0.03332296
0.5720001,0.03292445
0.5710001,0.03252594
0.5700001,0.03212743
0.5690001,0.03172891
0.5680001,0.0313304
0.5670001,0.03093189
0.5660001,0.03053337
0.5650001,0.03010421
0.5640001,0.02973635
0.5630001,0.02933784
0.5620001,0.02893933
0.5610001,0.02854081
0.5600001,0.02817295
0.5590001,0.02777444
0.5580001,0.02737593
0.5570001,0.02697741
0.5560001,0.02660956
0.5550001,0.02621104
0.5540001,0.02584319
0.5530001,0.02544468
0.5520001,0.02507682
0.5510001,0.0246783
0.5500001,0.02431045
0.5490001,0.02394259
0.5480001,0.02354407
0.5470001,0.02317622
0.5460001,0.02280836
0.5450001,0.0224405
0.5440001,0.02207264
0.5430001,0.02167413
0.5420001,0.02133693
0.5410001,0.02096907
0.5400001,0.02060121
0.5390001,0.02023335
0.5380001,0.01989615
0.5370001,0.01949764
0.5360001,0.01916043
0.5350001,0.01882323
0.5340001,0.01845537
0.5330001,0.01811817
0.5320001,0.01778097
0.5310001,0.01741311
0.5300001,0.01707591
0.5290001,0.0167387
0.5280001,0.01637085
0.5270001,0.01603364
0.5260001,0.01569644
0.5250001,0.01535923
0.5240001,0.01502203
0.5230001,0.01471548
0.5220001,0.01434763
0.5210001,0.01404108
0.5200001,0.01370388
0.5190001,0.01336667
0.5180001,0.0125594
0.5170001,0.01224365
0.5160001,0.01193097
0.5150001,0.01162443
0.5140001,0.01131175
0.5130001,0.01100826
0.5120001,0.01070172
0.5110001,0.01039823
0.5100001,0.01010701
0.5090001,0.009809661
0.5080001,0.00951844
0.5070001,0.00923335
0.5060001,0.008942129
0.5050001,0.008657039
0.5040001,0.00837808
0.5030001,0.008099122
0.5020001,0.007829359
0.5010001,0.007553466
0.5000001,0.007286769
0.4990001,0.007020072
0.4980001,0.006753375
0.4970001,0.00649894
0.4960001,0.006244505
0.4950001,0.005983938
0.4940001,0.0057387
0.4930001,0.005493461
0.4920001,0.005242092
0.4910001,0.005009115
0.4900001,0.004773073
0.4890001,0.004537031
0.4880001,0.004310185
0.4870001,0.00408334
0.4860001,0.003862625
0.4850001,0.003644975
0.4840001,0.003430392
0.4830001,0.003218873
0.4820001,0.003013486
0.4810001,0.002808099
0.4800001,0.002608842
0.4790001,0.002409586
0.4780001,0.002219526
0.4770001,0.002032532
0.4760001,0.001845537
0.4750001,0.001667739
0.4740001,0.001486876
0.4730001,0.001312143
0.4720001,0.001149673
0.4710001,0.0009463262
0.4700001,0.0007884538
0.4690001,0.0006305815
0.4680001,0.0004748549
0.4670001,0.0003270987
0.4660001,0.0001802621
0.4650001,3.741057E-05
0.4640001,-0.0001025086
0.4630001,-0.0002388919
0.4620001,-0.0003674276
0.4610001,-0.0004965966
0.4600001,-0.0006219748
0.4590001,-0.0007369304
0.4580001,-0.000855258
0.4570001,-0.0009668416
0.4560001,-0.001072907
0.4550001,-0.001182038
0.4540001,-0.00128228
0.4530001,-0.001381295
0.4520001,-0.001478471
0.4510001,-0.001567063
0.4500001,-0.001659641
0.4490001,-0.001743941
0.4480001,-0.001826403
0.4470001,-0.00191101
0.4460001,-0.001983969
0.4450001,-0.00205754
0.4440001,-0.002130192
0.4430001,-0.002194567
0.4420001,-0.002263847
0.4410001,-0.002328222
0.4400001,-0.00238616
0.4390001,-0.002447776
0.4380001,-0.002501422
0.4370001,-0.002555068
0.4360001,-0.00260994
0.4350001,-0.002655922
0.4340001,-0.002703744
0.4330001,-0.002750339
0.4320001,-0.002793256
0.4310001,-0.002837093
0.4300001,-0.002874798
0.4290001,-0.002914956
0.4280001,-0.002951742
0.4270001,-0.002984849
0.4260001,-0.003020715
0.4250001,-0.003016318
0.4240001,-0.003043907
0.4230001,-0.003074562
0.4220001,-0.003099086
0.4210001,-0.003126675
0.4200001,-0.003154265
0.4190001,-0.003172658
0.4180001,-0.003200247
0.4170001,-0.003221706
0.4160001,-0.003240098
0.4150001,-0.003264622
0.4140001,-0.00327995
0.4130001,-0.003298342
0.4120001,-0.003319801
0.4110001,-0.003332063
0.4100001,-0.003353521
0.4090001,-0.003378045
0.4080001,-0.003387242
0.4070001,-0.003399503
0.4060001,-0.0034087
0.4050001,-0.003420962
0.4040001,-0.003433224
0.4030001,-0.00344242
0.4020001,-0.003454682
0.4010001,-0.003460813
0.4000001,-0.003470009
0.3990001,-0.003482271
0.3980001,-0.003485337
0.3970001,-0.003494533
0.3960001,-0.00350373
0.3950001,-0.003506796
0.3940001,-0.003515992
0.3930001,-0.003522123
0.3920001,-0.003525188
0.3910001,-0.003534385
0.3900001,-0.003540515
0.3890001,-0.003543581
0.3880001,-0.003549712
0.3870001,-0.003549712
0.3860001,-0.003555843
0.3850001,-0.003558908
0.3840001,-0.003558908
0.3830001,-0.003565039
0.3820001,-0.003565039
0.3810001,-0.003568105
0.3800001,-0.00357117
0.3790001,-0.00357117
0.3780001,-0.003574236
0.3770001,-0.003577302
0.3760001,-0.003577302
0.3750001,-0.003580367
0.3740001,-0.003577302
0.3730001,-0.003577302
0.3720001,-0.003580367
0.3710001,-0.003577302
0.3700001,-0.003580367
0.3690001,-0.003580367
0.3680001,-0.003577302
0.3670001,-0.003580367
0.3660001,-0.003574236
0.3650001,-0.003574236
0.3640001,-0.003574236
0.3630001,-0.003568105
0.3620001,-0.00357117
0.3610001,-0.003568105
0.3600001,-0.003561974
0.3590001,-0.003565039
0.3580001,-0.003565039
0.3570001,-0.003558908
0.3560001,-0.003555843
0.3550001,-0.003549712
0.3540001,-0.003546647
0.3530001,-0.003543581
0.3520001,-0.003540515
0.3510001,-0.003540515
0.3500001,-0.003531319
0.3490001,-0.003528254
0.3480001,-0.003528254
0.3470001,-0.003519057
0.3460001,-0.003519057
0.3450001,-0.003512926
0.3440001,-0.003506796
0.3430001,-0.003506796
0.3420001,-0.003497599
0.3410001,-0.003494533
0.3400001,-0.003491468
0.3390001,-0.003485337
0.3380001,-0.003482271
0.3370001,-0.00347614
