EXPID. 0773
[电化学]: CV : 0 >> 0.7 >> 0 >> 0(V) @ 0.01(V/s) X 10(Seg)
起始电位 (V),0
上限电位 (V),0.7
下限电位 (V),0
终止电位 (V),0
扫速 (V/s),0.01
电解液 信息:
KOH,1
0.001,1.698394E-05
0.002,1.762769E-05
0.003,1.805686E-05
0.004,1.848603E-05
0.005,1.879257E-05
0.006,1.912978E-05
0.007,1.949764E-05
0.008,1.971222E-05
0.009,1.995746E-05
0.01,2.026401E-05
0.011,2.050925E-05
0.012,2.084645E-05
0.013,2.103038E-05
0.014,2.124496E-05
0.015,2.155151E-05
0.016,2.179675E-05
0.017,2.195002E-05
0.018,2.225657E-05
0.019,2.247115E-05
0.02,2.268574E-05
0.021,2.296163E-05
0.022,2.311491E-05
0.023,2.329884E-05
0.024,2.360538E-05
0.025,2.3728E-05
0.026,2.403455E-05
0.027,2.421848E-05
0.028,2.443306E-05
0.029,2.470896E-05
0.03,2.492354E-05
0.031,2.526074E-05
0.032,2.547533E-05
0.033,2.568991E-05
0.034,2.593515E-05
0.035,2.602712E-05
0.036,2.636432E-05
0.037,2.654824E-05
0.038,2.667087E-05
0.039,2.688545E-05
0.04,2.703872E-05
0.041,2.713069E-05
0.042,2.737593E-05
0.043,2.755985E-05
0.044,2.78051E-05
0.045,2.801968E-05
0.046,2.823426E-05
0.047,2.851016E-05
0.048,2.866343E-05
0.049,2.884736E-05
0.05,2.903129E-05
0.051,2.918456E-05
0.052,2.94298E-05
0.053,2.955242E-05
0.054,2.964438E-05
0.055,2.985897E-05
0.056,3.004289E-05
0.057,3.022683E-05
0.058,3.041075E-05
0.059,3.059468E-05
0.06,3.090123E-05
0.061,3.114647E-05
0.062,3.120778E-05
0.063,3.145302E-05
0.064,3.157564E-05
0.065,3.172891E-05
0.066,3.200481E-05
0.067,3.209677E-05
0.068,3.225004E-05
0.069,3.240332E-05
0.07,3.255659E-05
0.071,3.283249E-05
0.072,3.301641E-05
0.073,3.326165E-05
0.074,3.353754E-05
0.075,3.362951E-05
0.076,3.387475E-05
0.077,3.399737E-05
0.078,3.41813E-05
0.079,3.439588E-05
0.08,3.448785E-05
0.081,3.470243E-05
0.082,3.494767E-05
0.083,3.516225E-05
0.084,3.54688E-05
0.085,3.568338E-05
0.086,3.586731E-05
0.087,3.611255E-05
0.088,3.632714E-05
0.089,3.648041E-05
0.09,3.666434E-05
0.091,3.687892E-05
0.092,3.712416E-05
0.093,3.73694E-05
0.094,3.76453E-05
0.095,3.792119E-05
0.096,3.816642E-05
0.097,3.838101E-05
0.098,3.86569E-05
0.099,3.881018E-05
0.1,3.914738E-05
0.101,3.933131E-05
0.102,3.966851E-05
0.103,4.000571E-05
0.104,4.02203E-05
0.105,4.05575E-05
0.106,4.089471E-05
0.107,4.110929E-05
0.108,4.147715E-05
0.109,4.172239E-05
0.11,4.193697E-05
0.111,4.224352E-05
0.112,4.255007E-05
0.113,4.285661E-05
0.114,4.331644E-05
0.115,4.37456E-05
0.116,4.405215E-05
0.117,4.438936E-05
0.118,4.472656E-05
0.119,4.512507E-05
0.12,4.540096E-05
0.121,4.573816E-05
0.122,4.622864E-05
0.123,4.668847E-05
0.124,4.717894E-05
0.125,4.760811E-05
0.126,4.797597E-05
0.127,4.84971E-05
0.128,4.880365E-05
0.129,4.929413E-05
0.13,4.981526E-05
0.131,5.024443E-05
0.132,5.088818E-05
0.133,5.150127E-05
0.134,5.205306E-05
0.135,5.266616E-05
0.136,5.315664E-05
0.137,5.370842E-05
0.138,5.438283E-05
0.139,5.490396E-05
0.14,5.557837E-05
0.141,5.628342E-05
0.142,5.692718E-05
0.143,5.781617E-05
0.144,5.852123E-05
0.145,5.92876E-05
0.146,6.008463E-05
0.147,6.088165E-05
0.148,6.173999E-05
0.149,6.24757E-05
0.15,6.333403E-05
0.151,6.431499E-05
0.152,6.526529E-05
0.153,6.624625E-05
0.154,6.741113E-05
0.155,6.842274E-05
0.156,6.949566E-05
0.157,7.066054E-05
0.158,7.176412E-05
0.159,7.295965E-05
0.16,7.415519E-05
0.161,7.538139E-05
0.162,7.666889E-05
0.163,7.804835E-05
0.164,7.958109E-05
0.165,8.105253E-05
0.166,8.258527E-05
0.167,8.420997E-05
0.168,8.568141E-05
0.169,8.733677E-05
0.17,8.902277E-05
0.171,9.07088E-05
0.172,9.264005E-05
0.173,9.450999E-05
0.174,9.641059E-05
0.175,9.858709E-05
0.176,0.0001006716
0.177,0.0001027561
0.178,0.0001050552
0.179,0.0001072011
0.18,0.0001096535
0.181,0.0001120139
0.182,0.0001144356
0.183,0.0001170413
0.184,0.0001196776
0.185,0.0001224365
0.186,0.0001252874
0.187,0.0001282303
0.188,0.0001314491
0.189,0.0001343919
0.19,0.0001375187
0.191,0.0001407988
0.192,0.0001441401
0.193,0.0001475428
0.194,0.0001511294
0.195,0.0001545934
0.196,0.0001584866
0.197,0.0001622265
0.198,0.000166089
0.199,0.0001702887
0.2,0.0001743965
0.201,0.0001786575
0.202,0.0001831024
0.203,0.0001873941
0.204,0.0001920536
0.205,0.0001967745
0.206,0.000201434
0.207,0.0002063081
0.208,0.0002112129
0.209,0.0002163016
0.21,0.0002214823
0.211,0.0002267856
0.212,0.0002324567
0.213,0.000237852
0.214,0.0002433698
0.215,0.0002491943
0.216,0.0002547734
0.217,0.0002608124
0.218,0.0002669127
0.219,0.0002727985
0.22,0.000279144
0.221,0.0002853669
0.222,0.0002916818
0.223,0.0003019617
0.224,0.0003083992
0.225,0.0003148368
0.226,0.0003218873
0.227,0.0003283249
0.228,0.000335682
0.229,0.0003424261
0.23,0.0003491702
0.231,0.0003565273
0.232,0.0003638845
0.233,0.0003712417
0.234,0.0003785988
0.235,0.0003859559
0.236,0.0003939262
0.237,0.0004012834
0.238,0.0004092536
0.239,0.0004172239
0.24,0.0004251941
0.241,0.0004331644
0.242,0.0004414412
0.243,0.0004500245
0.244,0.0004589144
0.245,0.0004671912
0.246,0.0004760812
0.247,0.0004852776
0.248,0.0004941675
0.249,0.0005036705
0.25,0.0005131735
0.251,0.0005226765
0.252,0.0005330991
0.253,0.0005435218
0.254,0.0005539444
0.255,0.0005649801
0.256,0.0005763224
0.257,0.0005879712
0.258,0.0005999266
0.259,0.0006121886
0.26,0.0006253702
0.261,0.0006385517
0.262,0.0006523464
0.263,0.0006670607
0.264,0.000681775
0.265,0.000697409
0.266,0.0007142691
0.267,0.0007305162
0.268,0.0007489091
0.269,0.0007676086
0.27,0.0007872276
0.271,0.0008080729
0.272,0.0008295313
0.273,0.000852829
0.274,0.0008770463
0.275,0.0009024898
0.276,0.0009303857
0.277,0.0009585881
0.278,0.0009892429
0.279,0.001022657
0.28,0.001056683
0.281,0.001094082
0.282,0.001133627
0.283,0.001174705
0.284,0.001220993
0.285,0.001269428
0.286,0.001320008
0.287,0.001376413
0.288,0.001435577
0.289,0.001499033
0.29,0.001568313
0.291,0.001641271
0.292,0.00172036
0.293,0.001804661
0.294,0.001895706
0.295,0.001992882
0.296,0.002095576
0.297,0.002207772
0.298,0.002325793
0.299,0.002451172
0.3,0.002587586
0.301,0.002728904
0.302,0.002880339
0.303,0.003041584
0.304,0.003240332
0.305,0.00341813
0.306,0.003605124
0.307,0.003801315
0.308,0.004009768
0.309,0.004224352
0.31,0.004445066
0.311,0.004678043
0.312,0.004917151
0.313,0.005162389
0.314,0.005416824
0.315,0.005680456
0.316,0.005950219
0.317,0.006223046
0.318,0.006502005
0.319,0.006787095
0.32,0.007078316
0.321,0.007375667
0.322,0.007669954
0.323,0.007976502
0.324,0.008279985
0.325,0.008586533
0.326,0.008899212
0.327,0.009214957
0.328,0.009527637
0.329,0.009843381
0.33,0.01016526
0.331,0.010481
0.332,0.01080288
0.333,0.01112475
0.334,0.0114405
0.335,0.01176544
0.336,0.01208731
0.337,0.01240919
0.338,0.01273413
0.339,0.01305601
0.34,0.01337788
0.341,0.01370282
0.342,0.0140247
0.343,0.01434351
0.344,0.01466232
0.345,0.01498726
0.346,0.01529994
0.347,0.01562488
0.348,0.01594369
0.349,0.0162533
0.35,0.01657825
0.351,0.01689092
0.352,0.01720973
0.353,0.01753161
0.354,0.01783816
0.355,0.0181539
0.356,0.01846965
0.357,0.01877313
0.358,0.01908581
0.359,0.01940155
0.36,0.01970504
0.361,0.02002078
0.362,0.02033346
0.363,0.02063081
0.364,0.02094349
0.365,0.02125004
0.366,0.02155046
0.367,0.02185701
0.368,0.02216049
0.369,0.02245784
0.37,0.02276132
0.371,0.02306481
0.372,0.02336829
0.373,0.02366258
0.374,0.02396606
0.375,0.02426035
0.376,0.02455157
0.377,0.02486118
0.378,0.02514627
0.379,0.02544669
0.38,0.02574711
0.381,0.02602606
0.382,0.02632342
0.383,0.0266085
0.384,0.02688746
0.385,0.02717868
0.386,0.02745458
0.387,0.0277366
0.388,0.02802476
0.389,0.02829452
0.39,0.02857348
0.391,0.02884937
0.392,0.02910994
0.393,0.02937664
0.394,0.02964333
0.395,0.02989164
0.396,0.03093189
0.397,0.03117712
0.398,0.03142237
0.399,0.0316676
0.4,0.03191284
0.401,0.03212743
0.402,0.03237266
0.403,0.0326179
0.404,0.03283248
0.405,0.03301642
0.406,0.033231
0.407,0.03341493
0.408,0.03359886
0.409,0.03381344
0.41,0.03399737
0.411,0.03415065
0.412,0.03430392
0.413,0.03442654
0.414,0.03457981
0.415,0.03470243
0.416,0.0347944
0.417,0.03491702
0.418,0.03500898
0.419,0.03507029
0.42,0.0351316
0.421,0.03519291
0.422,0.03522356
0.423,0.03525422
0.424,0.03525422
0.425,0.03525422
0.426,0.03522356
0.427,0.03522356
0.428,0.03516225
0.429,0.03510094
0.43,0.03503963
0.431,0.03494767
0.432,0.0348557
0.433,0.03476374
0.434,0.03461047
0.435,0.03448785
0.436,0.03436523
0.437,0.0341813
0.438,0.03402802
0.439,0.03384409
0.44,0.03359886
0.441,0.03341493
0.442,0.03320035
0.443,0.03292445
0.444,0.03270987
0.445,0.03240332
0.446,0.03209677
0.447,0.03182088
0.448,0.03145302
0.449,0.03111582
0.45,0.03074796
0.451,0.03034945
0.452,0.02992028
0.453,0.02949111
0.454,0.02903129
0.455,0.02857147
0.456,0.02808099
0.457,0.02759051
0.458,0.02710003
0.459,0.0265789
0.46,0.02605777
0.461,0.02553664
0.462,0.02501551
0.463,0.02449437
0.464,0.02394259
0.465,0.02345211
0.466,0.02293098
0.467,0.0224405
0.468,0.02198068
0.469,0.0214902
0.47,0.02103038
0.471,0.02060121
0.472,0.02017204
0.473,0.01977353
0.474,0.01943633
0.475,0.01906847
0.476,0.01873127
0.477,0.01845537
0.478,0.01817948
0.479,0.01793424
0.48,0.01771966
0.481,0.01750507
0.482,0.0173518
0.483,0.01722918
0.484,0.01713721
0.485,0.01707591
0.486,0.0170146
0.487,0.01698394
0.488,0.0170146
0.489,0.01704525
0.49,0.01710656
0.491,0.01719853
0.492,0.01729049
0.493,0.01744376
0.494,0.01756638
0.495,0.01775031
0.496,0.01790359
0.497,0.01811817
0.498,0.01833276
0.499,0.01854734
0.5,0.01879258
0.501,0.01903781
0.502,0.01931371
0.503,0.01955895
0.504,0.0198655
0.505,0.02014139
0.506,0.02044794
0.507,0.02075448
0.508,0.02109169
0.509,0.02139824
0.51,0.02173544
0.511,0.02207264
0.512,0.02240985
0.513,0.0227777
0.514,0.02311491
0.515,0.02348276
0.516,0.02385062
0.517,0.02421848
0.518,0.02458634
0.519,0.0249542
0.52,0.02532205
0.521,0.02572057
0.522,0.02608843
0.523,0.02648694
0.524,0.02688545
0.525,0.02728396
0.526,0.02765182
0.527,0.02808099
0.528,0.0284795
0.529,0.02887801
0.53,0.02927653
0.531,0.02967504
0.532,0.03010421
0.533,0.03053337
0.534,0.03093189
0.535,0.03136105
0.536,0.03179022
0.537,0.03218874
0.538,0.0326179
0.539,0.03304707
0.54,0.03347624
0.541,0.03390541
0.542,0.03430392
0.543,0.03473309
0.544,0.03516225
0.545,0.03559142
0.546,0.03602059
0.547,0.03648041
0.548,0.03690958
0.549,0.03733874
0.55,0.03776791
0.551,0.03822774
0.552,0.0386569
0.553,0.03908607
0.554,0.03954589
0.555,0.03997506
0.556,0.04043488
0.557,0.04086405
0.558,0.04132387
0.559,0.0417837
0.56,0.04221286
0.561,0.04264203
0.562,0.04313251
0.563,0.04356168
0.564,0.0440215
0.565,0.04448132
0.566,0.04491049
0.567,0.04537031
0.568,0.04583013
0.569,0.04628995
0.57,0.04671912
0.571,0.04717895
0.572,0.04766942
0.573,0.04809859
0.574,0.04855841
0.575,0.04904889
0.576,0.04947806
0.577,0.04993788
0.578,0.0503977
0.579,0.05085753
0.58,0.05131735
0.581,0.05177717
0.582,0.05223699
0.583,0.05272747
0.584,0.05318729
0.585,0.05364711
0.586,0.05413759
0.587,0.05459742
0.588,0.05505724
0.589,0.05551706
0.59,0.05597688
0.591,0.05646735
0.592,0.05692718
0.593,0.057387
0.594,0.05784683
0.595,0.0583373
0.596,0.05879712
0.597,0.05925695
0.598,0.05974742
0.599,0.06020725
0.6,0.06066707
0.601,0.06115754
0.602,0.06161737
0.603,0.06210784
0.604,0.06259833
0.605,0.06305815
0.606,0.06354862
0.607,0.06400844
0.608,0.06449892
0.609,0.06495874
0.61,0.06544922
0.611,0.0659397
0.612,0.06636887
0.613,0.06685934
0.614,0.06738048
0.615,0.06780964
0.616,0.06830012
0.617,0.06882125
0.618,0.06928107
0.619,0.06977155
0.62,0.07026203
0.621,0.07072186
0.622,0.07121233
0.623,0.07170281
0.624,0.07219329
0.625,0.07268376
0.626,0.07317424
0.627,0.07363406
0.628,0.07412454
0.629,0.07458436
0.63,0.07507484
0.631,0.07553466
0.632,0.07602514
0.633,0.07648496
0.634,0.07694478
0.635,0.07743526
0.636,0.07789508
0.637,0.07832425
0.638,0.07881473
0.639,0.07924389
0.64,0.07973437
0.641,0.0801942
0.642,0.08065402
0.643,0.0811445
0.644,0.08157366
0.645,0.08203348
0.646,0.08252396
0.647,0.08301444
0.648,0.08347426
0.649,0.08396474
0.65,0.08445521
0.651,0.08491503
0.652,0.08543617
0.653,0.08592664
0.654,0.08638646
0.655,0.0869076
0.656,0.08739807
0.657,0.08785789
0.658,0.08837903
0.659,0.0888695
0.66,0.08932933
0.661,0.08981981
0.662,0.09034094
0.663,0.09083142
0.664,0.09132189
0.665,0.09181237
0.666,0.09230285
0.667,0.09276267
0.668,0.0932838
0.669,0.09377428
0.67,0.0942341
0.671,0.09472458
0.672,0.09524571
0.673,0.09573619
0.674,0.09622667
0.675,0.09671714
0.676,0.09720763
0.677,0.0976981
0.678,0.09818857
0.679,0.09867906
0.68,0.09916953
0.681,0.09966001
0.682,0.1001505
0.683,0.100641
0.684,0.1011314
0.685,0.1016219
0.686,0.1021124
0.687,0.1026029
0.688,0.1030933
0.689,0.1035838
0.69,0.1040743
0.691,0.1045341
0.692,0.1050246
0.693,0.1055457
0.694,0.1060055
0.695,0.106496
0.696,0.1069865
0.697,0.107477
0.698,0.1079675
0.699,0.1084579
0.7,0.1086112
0.6990001,0.1081207
0.6980001,0.1075996
0.6970001,0.1071704
0.6960001,0.1066493
0.6950001,0.1061895
0.6940001,0.1057297
0.6930001,0.1052392
0.6920001,0.1047487
0.6910001,0.1042889
0.6900001,0.1037984
0.6890001,0.1033079
0.6880001,0.1028481
0.6870001,0.1023883
0.6860001,0.1018672
0.6850001,0.1013767
0.6840001,0.1009169
0.6830001,0.1004264
0.6820001,0.0999359
0.6810001,0.09947608
0.6800001,0.0989856
0.6790001,0.09849513
0.6780001,0.0980353
0.6770001,0.09751417
0.6760001,0.09705435
0.6750001,0.09659453
0.6740001,0.09610405
0.6730001,0.09564423
0.6720001,0.09515375
0.6710001,0.09466327
0.6700001,0.09420345
0.6690001,0.09371297
0.6680001,0.09322249
0.6670001,0.09276267
0.6660001,0.09230285
0.6650001,0.09181237
0.6640001,0.09135254
0.6630001,0.09086207
0.6620001,0.0903716
0.6610001,0.08991177
0.6600001,0.08942129
0.6590001,0.08893082
0.6580001,0.08850165
0.6570001,0.08801118
0.6560001,0.0875207
0.6550001,0.08706088
0.6540001,0.0865704
0.6530001,0.08611058
0.6520001,0.0856201
0.6510001,0.08512962
0.6500001,0.0846698
0.6490001,0.08420997
0.6480001,0.0837195
0.6470001,0.08325968
0.6460001,0.08279985
0.6450001,0.08227872
0.6440001,0.0818189
0.6430001,0.08138973
0.6420001,0.08089925
0.6410001,0.08040877
0.6400001,0.07997961
0.6390001,0.07948913
0.6380001,0.07899866
0.6370001,0.07856949
0.6360001,0.07804836
0.6350001,0.07758854
0.6340001,0.07712871
0.6330001,0.07663824
0.6320001,0.07617841
0.6310001,0.07571859
0.6300001,0.07525877
0.6290001,0.07476829
0.6280001,0.07427781
0.6270001,0.07384864
0.6260001,0.07335817
0.6250001,0.07289835
0.6240001,0.07243852
0.6230001,0.07194804
0.6220001,0.07148822
0.6210001,0.0710284
0.6200001,0.07053792
0.6190001,0.07010876
0.6180001,0.06961828
0.6170001,0.06915846
0.6160001,0.06869864
0.6150001,0.06820816
0.6140001,0.06774833
0.6130001,0.06728851
0.6120001,0.06682869
0.6110001,0.06633821
0.6100001,0.06587839
0.6090001,0.06541856
0.6080001,0.06495874
0.6070001,0.06449892
0.6060001,0.0640391
0.6050001,0.06354862
0.6040001,0.06311946
0.6030001,0.06265964
0.6020001,0.06216915
0.6010001,0.06170933
0.6000001,0.06124951
0.5990001,0.06078969
0.5980001,0.06032987
0.5970001,0.05987004
0.5960001,0.05937957
0.5950001,0.0589504
0.5940001,0.05849057
0.5930001,0.0580001
0.5920001,0.05757093
0.5910001,0.05708046
0.5900001,0.05665129
0.5890001,0.05619146
0.5880001,0.05573164
0.5870001,0.05527182
0.5860001,0.05484265
0.5850001,0.05435218
0.5840001,0.05392301
0.5830001,0.05346319
0.5820001,0.05300336
0.5810001,0.05254354
0.5800001,0.05208372
0.5790001,0.05162389
0.5780001,0.05116407
0.5770001,0.05070425
0.5760001,0.05027508
0.5750001,0.04981526
0.5740001,0.04935544
0.5730001,0.04892627
0.5720001,0.04846645
0.5710001,0.04803728
0.5700001,0.0475468
0.5690001,0.04711764
0.5680001,0.04668847
0.5670001,0.04622864
0.5660001,0.04576882
0.5650001,0.04533966
0.5640001,0.04484918
0.5630001,0.04442001
0.5620001,0.04399084
0.5610001,0.04353102
0.5600001,0.04310185
0.5590001,0.04264203
0.5580001,0.04221286
0.5570001,0.04175304
0.5560001,0.04132387
0.5550001,0.04086405
0.5540001,0.04043488
0.5530001,0.04000572
0.5520001,0.03954589
0.5510001,0.03911673
0.5500001,0.03868756
0.5490001,0.03822774
0.5480001,0.03779857
0.5470001,0.0373694
0.5460001,0.03690958
0.5450001,0.03648041
0.5440001,0.03605124
0.5430001,0.03562208
0.5420001,0.03519291
0.5410001,0.03476374
0.5400001,0.03433457
0.5390001,0.03390541
0.5380001,0.03347624
0.5370001,0.03304707
0.5360001,0.03264856
0.5350001,0.03221939
0.5340001,0.03179022
0.5330001,0.03136105
0.5320001,0.03093189
0.5310001,0.03050272
0.5300001,0.03007355
0.5290001,0.02964438
0.5280001,0.02924587
0.5270001,0.0288167
0.5260001,0.02838754
0.5250001,0.02798902
0.5240001,0.02755986
0.5230001,0.02716134
0.5220001,0.02673218
0.5210001,0.02633366
0.5200001,0.02593515
0.5190001,0.02553664
0.5180001,0.02510747
0.5170001,0.02470896
0.5160001,0.02431045
0.5150001,0.02391193
0.5140001,0.02348276
0.5130001,0.02308425
0.5120001,0.02268574
0.5110001,0.02228723
0.5100001,0.02188871
0.5090001,0.0214902
0.5080001,0.02109169
0.5070001,0.02072383
0.5060001,0.02032532
0.5050001,0.01992681
0.5040001,0.01955895
0.5030001,0.01916043
0.5020001,0.01879258
0.5010001,0.01842472
0.5000001,0.01802621
0.4990001,0.01765835
0.4980001,0.01729049
0.4970001,0.01692263
0.4960001,0.01652412
0.4950001,0.01618692
0.4940001,0.01581906
0.4930001,0.0154512
0.4920001,0.01508334
0.4910001,0.01471548
0.4900001,0.01434763
0.4890001,0.01401042
0.4880001,0.01364256
0.4870001,0.01330536
0.4860001,0.01245211
0.4850001,0.0121149
0.4840001,0.01177463
0.4830001,0.01144356
0.4820001,0.01111249
0.4810001,0.01078448
0.4800001,0.01046261
0.4790001,0.01014073
0.4780001,0.009821923
0.4770001,0.009506178
0.4760001,0.009196565
0.4750001,0.008890016
0.4740001,0.008580402
0.4730001,0.008279985
0.4720001,0.007985699
0.4710001,0.007691412
0.4700001,0.007406323
0.4690001,0.007118167
0.4680001,0.006833077
0.4670001,0.006560249
0.4660001,0.006284356
0.4650001,0.006017659
0.4640001,0.005754027
0.4630001,0.005490396
0.4620001,0.005235961
0.4610001,0.004984592
0.4600001,0.004733222
0.4590001,0.004500245
0.4580001,0.004261137
0.4570001,0.004028161
0.4560001,0.003807446
0.4550001,0.0035806
0.4540001,0.003366017
0.4530001,0.003154498
0.4520001,0.002946045
0.4510001,0.002746789
0.4500001,0.002547533
0.4490001,0.002360538
0.4480001,0.002173544
0.4470001,0.00199268
0.4460001,0.001821013
0.4450001,0.001649346
0.4440001,0.00148381
0.4430001,0.001330536
0.4420001,0.001174197
0.4410001,0.0009910823
0.4400001,0.0008522159
0.4390001,0.0007099775
0.4380001,0.0005793879
0.4370001,0.0004527835
0.4360001,0.0003267921
0.4350001,0.0002118365
0.4340001,9.657437E-05
0.4330001,-1.286335E-05
0.4320001,-0.0001190009
0.4310001,-0.0002204683
0.4300001,-0.0003139042
0.4290001,-0.0004061648
0.4280001,-0.0004944507
0.4270001,-0.0005747664
0.4260001,-0.0006553886
0.4250001,-0.0007307994
0.4240001,-0.0008025317
0.4230001,-0.0008739574
0.4220001,-0.0009395588
0.4210001,-0.001002095
0.4200001,-0.001063404
0.4190001,-0.001117357
0.4180001,-0.001174988
0.4170001,-0.001225568
0.4160001,-0.00127339
0.4150001,-0.00132397
0.4140001,-0.001366581
0.4130001,-0.001409191
0.4120001,-0.001453027
0.4110001,-0.001489506
0.4100001,-0.001534569
0.4090001,-0.001577486
0.4080001,-0.001605382
0.4070001,-0.001640022
0.4060001,-0.001669757
0.4050001,-0.001698879
0.4040001,-0.001730453
0.4030001,-0.001757736
0.4020001,-0.001786552
0.4010001,-0.001813528
0.4000001,-0.001837745
0.3990001,-0.001866254
0.3980001,-0.001889245
0.3970001,-0.001914995
0.3960001,-0.001940746
0.3950001,-0.001960058
0.3940001,-0.001986421
0.3930001,-0.002010025
0.3920001,-0.002029031
0.3910001,-0.002055701
0.3900001,-0.002075933
0.3890001,-0.002097085
0.3880001,-0.002122528
0.3870001,-0.002140308
0.3860001,-0.002162687
0.3850001,-0.002185984
0.3840001,-0.002204683
0.3830001,-0.002229514
0.3820001,-0.00224852
0.3810001,-0.002270898
0.3800001,-0.002293889
0.3790001,-0.002313508
0.3780001,-0.002338032
0.3770001,-0.002361023
0.3760001,-0.002380336
0.3750001,-0.002405166
0.3740001,-0.002426318
0.3730001,-0.002449002
0.3720001,-0.002472606
0.3710001,-0.002495291
0.3700001,-0.002519509
0.3690001,-0.002543726
0.3680001,-0.002564265
0.3670001,-0.002592467
0.3660001,-0.002616378
0.3650001,-0.002639982
0.3640001,-0.002666958
0.3630001,-0.002689336
0.3620001,-0.002716313
0.3610001,-0.002743289
0.3600001,-0.002767506
0.3590001,-0.002795709
0.3580001,-0.002824218
0.3570001,-0.002851194
0.3560001,-0.002880009
0.3550001,-0.002905759
0.3540001,-0.002935801
0.3530001,-0.002963084
0.3520001,-0.002992513
0.3510001,-0.003026539
