EXPID. 0865
[电化学]: CV : 0 >> 0.7 >> 0 >> 0(V) @ 0.01(V/s) X 10(Seg)
起始电位 (V),0
上限电位 (V),0.7
下限电位 (V),0
终止电位 (V),0
扫速 (V/s),0.01
电解液 信息:
KOH,1
0.001,0.0002201133
0.002,0.0002290032
0.003,0.0002375866
0.004,0.0002470896
0.005,0.0002559795
0.006,0.0002651759
0.007,0.0002755986
0.008,0.0002854081
0.009,0.0002961373
0.01,0.0003077862
0.011,0.0003191284
0.012,0.0003316969
0.013,0.0003442654
0.014,0.0003577535
0.015,0.0003718548
0.016,0.000386569
0.017,0.0004015899
0.018,0.0004181435
0.019,0.0004346971
0.02,0.0004527835
0.021,0.0004711764
0.022,0.0004904889
0.023,0.0005110276
0.024,0.000531873
0.025,0.000554251
0.026,0.0005775486
0.027,0.0006014594
0.028,0.0006278225
0.029,0.0006538791
0.03,0.000681775
0.031,0.0007115102
0.032,0.0007418585
0.033,0.0007740461
0.034,0.0008077663
0.035,0.0008420998
0.036,0.0008791921
0.037,0.0009168976
0.038,0.0009567488
0.039,0.000998746
0.04,0.001041049
0.041,0.001086112
0.042,0.001132708
0.043,0.001180529
0.044,0.001231723
0.045,0.001283836
0.046,0.001337175
0.047,0.001394193
0.048,0.001451518
0.049,0.001511295
0.05,0.001574137
0.051,0.001637899
0.052,0.00170534
0.053,0.0017737
0.054,0.001843593
0.055,0.001917778
0.056,0.001992269
0.057,0.002069826
0.058,0.002150754
0.059,0.002232296
0.06,0.002318436
0.061,0.002405496
0.062,0.002495315
0.063,0.002588505
0.064,0.002683229
0.065,0.002782244
0.066,0.002883711
0.067,0.002984566
0.068,0.003129974
0.069,0.003234201
0.07,0.003344558
0.071,0.003461046
0.072,0.0035806
0.073,0.003697089
0.074,0.003822774
0.075,0.003951524
0.076,0.004080274
0.077,0.00421209
0.078,0.004350036
0.079,0.004491049
0.08,0.004632061
0.081,0.004779204
0.082,0.004932478
0.083,0.005079621
0.084,0.005235961
0.085,0.005398431
0.086,0.005554772
0.087,0.005723373
0.088,0.005891975
0.089,0.006063641
0.09,0.006241439
0.091,0.006419237
0.092,0.006603166
0.093,0.006784029
0.094,0.006974089
0.095,0.007167215
0.096,0.007357275
0.097,0.007559597
0.098,0.007758853
0.099,0.007967305
0.1,0.008178824
0.101,0.008381146
0.102,0.008614123
0.103,0.008837903
0.104,0.009049421
0.105,0.009279332
0.106,0.009503113
0.107,0.009729958
0.108,0.009972132
0.109,0.01019898
0.11,0.01044115
0.111,0.01067719
0.112,0.0109163
0.113,0.01118913
0.114,0.01142824
0.115,0.0116796
0.116,0.01193711
0.117,0.01219767
0.118,0.01245211
0.119,0.01271574
0.12,0.01297324
0.121,0.013243
0.122,0.01350357
0.123,0.01377946
0.124,0.01405229
0.125,0.01432205
0.126,0.01459794
0.127,0.0148769
0.128,0.0151436
0.129,0.01542562
0.13,0.01570152
0.131,0.01598048
0.132,0.0162533
0.133,0.01653226
0.134,0.01680816
0.135,0.01709018
0.136,0.01735994
0.137,0.01763584
0.138,0.01792093
0.139,0.01818762
0.14,0.01846352
0.141,0.01874248
0.142,0.0190153
0.143,0.01927587
0.144,0.01955177
0.145,0.01982153
0.146,0.02008516
0.147,0.02035492
0.148,0.02061855
0.149,0.02087605
0.15,0.02114275
0.151,0.02140025
0.152,0.02165162
0.153,0.02192138
0.154,0.02217582
0.155,0.02242106
0.156,0.02267856
0.157,0.02292993
0.158,0.02316904
0.159,0.02341734
0.16,0.02366871
0.161,0.02391395
0.162,0.02413773
0.163,0.0243891
0.164,0.02462514
0.165,0.02485505
0.166,0.02510029
0.167,0.02533326
0.168,0.02556011
0.169,0.02579615
0.17,0.02602606
0.171,0.02624678
0.172,0.02647976
0.173,0.02671273
0.174,0.02692119
0.175,0.02714803
0.176,0.02738714
0.177,0.02758639
0.178,0.02780098
0.179,0.02802476
0.18,0.02824854
0.181,0.02843553
0.182,0.02866544
0.183,0.02889229
0.184,0.02908235
0.185,0.02928774
0.186,0.02951765
0.187,0.0297261
0.188,0.02990697
0.189,0.03093189
0.19,0.03111582
0.191,0.03129975
0.192,0.03151433
0.193,0.03172891
0.194,0.03191284
0.195,0.03209677
0.196,0.03231135
0.197,0.03252594
0.198,0.03267921
0.199,0.03286314
0.2,0.03307773
0.201,0.03326165
0.202,0.03344558
0.203,0.03366017
0.204,0.03381344
0.205,0.03402802
0.206,0.03421196
0.207,0.03436523
0.208,0.03454916
0.209,0.03473309
0.21,0.03488636
0.211,0.03507029
0.212,0.03525422
0.213,0.03540749
0.214,0.03556077
0.215,0.03577535
0.216,0.03589797
0.217,0.03602059
0.218,0.03623517
0.219,0.03635779
0.22,0.03648041
0.221,0.03666434
0.222,0.03678696
0.223,0.03687892
0.224,0.03700154
0.225,0.03721613
0.226,0.03740006
0.227,0.03740006
0.228,0.03773726
0.229,0.03789053
0.23,0.03795184
0.231,0.03816643
0.232,0.03813577
0.233,0.03819708
0.234,0.03838101
0.235,0.03847298
0.236,0.03853428
0.237,0.03862625
0.238,0.03874887
0.239,0.03881018
0.24,0.03887149
0.241,0.03890214
0.242,0.03914738
0.243,0.03911673
0.244,0.03914738
0.245,0.03933131
0.246,0.03930065
0.247,0.03939262
0.248,0.03948459
0.249,0.03951524
0.25,0.03954589
0.251,0.0396072
0.252,0.03972982
0.253,0.03951524
0.254,0.0396072
0.255,0.03982178
0.256,0.03982178
0.257,0.03985244
0.258,0.0398831
0.259,0.0398831
0.26,0.03976048
0.261,0.03985244
0.262,0.03972982
0.263,0.03976048
0.264,0.03979113
0.265,0.03976048
0.266,0.03963786
0.267,0.03969917
0.268,0.03966851
0.269,0.03954589
0.27,0.03945393
0.271,0.03939262
0.272,0.03936196
0.273,0.03927
0.274,0.03914738
0.275,0.03911673
0.276,0.03908607
0.277,0.0389328
0.278,0.03881018
0.279,0.03881018
0.28,0.03856494
0.281,0.03847298
0.282,0.03850363
0.283,0.03828905
0.284,0.03789053
0.285,0.03795184
0.286,0.03795184
0.287,0.03752267
0.288,0.03727744
0.289,0.0373694
0.29,0.03709351
0.291,0.03678696
0.292,0.03681761
0.293,0.03663369
0.294,0.03623517
0.295,0.03614321
0.296,0.03595928
0.297,0.03568339
0.298,0.03534618
0.299,0.03525422
0.3,0.03507029
0.301,0.03467178
0.302,0.0345185
0.303,0.03433457
0.304,0.03402802
0.305,0.03378279
0.306,0.0335682
0.307,0.03332296
0.308,0.03304707
0.309,0.03277118
0.31,0.03258725
0.311,0.0322807
0.312,0.03197415
0.313,0.03185153
0.314,0.03154498
0.315,0.03117712
0.316,0.03108516
0.317,0.03083992
0.318,0.0303801
0.319,0.03019617
0.32,0.03007355
0.321,0.02967504
0.322,0.02933784
0.323,0.02924587
0.324,0.02896998
0.325,0.02857147
0.326,0.02832623
0.327,0.02817295
0.328,0.0278051
0.329,0.02737593
0.33,0.02725331
0.331,0.02688545
0.332,0.02633366
0.333,0.02605777
0.334,0.02572057
0.335,0.02504616
0.336,0.0246783
0.337,0.02427979
0.338,0.02369735
0.339,0.02320687
0.34,0.02256312
0.341,0.02204199
0.342,0.02124496
0.343,0.02084645
0.344,0.02050925
0.345,0.0195896
0.346,0.01888454
0.347,0.01851668
0.348,0.01790359
0.349,0.01722918
0.35,0.01680001
0.351,0.0164015
0.352,0.0157884
0.353,0.01535923
0.354,0.01502203
0.355,0.01459287
0.356,0.0141637
0.357,0.01385715
0.358,0.01358126
0.359,0.01318274
0.36,0.01239693
0.361,0.01217621
0.362,0.01187273
0.363,0.0115999
0.364,0.01146196
0.365,0.01121978
0.366,0.01095309
0.367,0.01080901
0.368,0.01061895
0.369,0.01041356
0.37,0.01024802
0.371,0.01009782
0.372,0.009947607
0.373,0.009867905
0.374,0.009582815
0.375,0.009539898
0.376,0.009493916
0.377,0.009420345
0.378,0.009595077
0.379,0.009644125
0.38,0.009469392
0.381,0.009512309
0.382,0.00938969
0.383,0.009202695
0.384,0.009129124
0.385,0.008972785
0.386,0.008810313
0.387,0.008727546
0.388,0.008571207
0.389,0.008430193
0.39,0.00837808
0.391,0.008289182
0.392,0.008157366
0.393,0.008077663
0.394,0.008016353
0.395,0.007970371
0.396,0.007860013
0.397,0.007777246
0.398,0.007746591
0.399,0.007676085
0.4,0.007620906
0.401,0.007571859
0.402,0.007525877
0.403,0.007449239
0.404,0.007449239
0.405,0.007366471
0.406,0.007311293
0.407,0.007289834
0.408,0.007289834
0.409,0.007219328
0.41,0.007142691
0.411,0.007176412
0.412,0.007087512
0.413,0.007038464
0.414,0.00706912
0.415,0.007004744
0.416,0.006943435
0.417,0.006955697
0.418,0.006925041
0.419,0.006882125
0.42,0.006891321
0.421,0.006928107
0.422,0.006989417
0.423,0.00704153
0.424,0.006974089
0.425,0.006909714
0.426,0.006906649
0.427,0.006860667
0.428,0.006762571
0.429,0.00675644
0.43,0.006750309
0.431,0.006670607
0.432,0.006655279
0.433,0.00666141
0.434,0.006615428
0.435,0.006575576
0.436,0.006587839
0.437,0.006569446
0.438,0.006526529
0.439,0.006535726
0.44,0.006529594
0.441,0.00649894
0.442,0.00649894
0.443,0.006502005
0.444,0.006486678
0.445,0.006480547
0.446,0.006486678
0.447,0.006480547
0.448,0.006474416
0.449,0.006480547
0.45,0.006483613
0.451,0.006480547
0.452,0.006483613
0.453,0.006492809
0.454,0.006505071
0.455,0.006508136
0.456,0.006517333
0.457,0.006541857
0.458,0.006554118
0.459,0.00656638
0.46,0.006597036
0.461,0.006618494
0.462,0.006639952
0.463,0.006676738
0.464,0.006704327
0.465,0.006734982
0.466,0.006777898
0.467,0.006823881
0.468,0.006863732
0.469,0.006909714
0.47,0.006971024
0.471,0.007026203
0.472,0.007081382
0.473,0.007154953
0.474,0.007228524
0.475,0.007295965
0.476,0.00738793
0.477,0.007470698
0.478,0.007556531
0.479,0.007657692
0.48,0.007761919
0.481,0.007869211
0.482,0.007988765
0.483,0.008108318
0.484,0.008234003
0.485,0.008371949
0.486,0.008509896
0.487,0.008657039
0.488,0.008816444
0.489,0.008975849
0.49,0.009141386
0.491,0.009322249
0.492,0.009506178
0.493,0.009690107
0.494,0.009892429
0.495,0.01009782
0.496,0.0103032
0.497,0.01052085
0.498,0.01075076
0.499,0.01097761
0.5,0.01121672
0.501,0.01146196
0.502,0.01171332
0.503,0.01196776
0.504,0.01223139
0.505,0.01250115
0.506,0.01277092
0.507,0.01305601
0.508,0.01334416
0.509,0.01362925
0.51,0.01392967
0.511,0.01423009
0.512,0.0145397
0.513,0.01485851
0.514,0.01516812
0.515,0.01549
0.516,0.01582414
0.517,0.01614908
0.518,0.01648322
0.519,0.01682348
0.52,0.01716375
0.521,0.01750709
0.522,0.01786268
0.523,0.01821828
0.524,0.01857387
0.525,0.0189356
0.526,0.0192912
0.527,0.01965906
0.528,0.02002998
0.529,0.0204009
0.53,0.02077489
0.531,0.02115501
0.532,0.0215382
0.533,0.02191832
0.534,0.02229844
0.535,0.02269388
0.536,0.023074
0.537,0.02347252
0.538,0.02387103
0.539,0.02425728
0.54,0.02466806
0.541,0.0250635
0.542,0.02545895
0.543,0.02586972
0.544,0.0262713
0.545,0.02668208
0.546,0.02709285
0.547,0.02750363
0.548,0.02791747
0.549,0.02833437
0.55,0.02875434
0.551,0.02915899
0.552,0.02959122
0.553,0.03001119
0.554,0.03120778
0.555,0.03160629
0.556,0.03203546
0.557,0.03246463
0.558,0.0328938
0.559,0.03335362
0.56,0.03375213
0.561,0.03421196
0.562,0.03464112
0.563,0.03507029
0.564,0.03553011
0.565,0.03598994
0.566,0.0364191
0.567,0.03684827
0.568,0.03730809
0.569,0.03773726
0.57,0.03819708
0.571,0.0386569
0.572,0.03911673
0.573,0.03954589
0.574,0.04000572
0.575,0.04046554
0.576,0.04089471
0.577,0.04135453
0.578,0.04181435
0.579,0.04227417
0.58,0.04273399
0.581,0.04319382
0.582,0.04365364
0.583,0.04411346
0.584,0.04454263
0.585,0.04503311
0.586,0.04549293
0.587,0.04595275
0.588,0.04641258
0.589,0.04690305
0.59,0.04736288
0.591,0.0478227
0.592,0.04828252
0.593,0.04874234
0.594,0.04923282
0.595,0.04972329
0.596,0.05015246
0.597,0.05061228
0.598,0.05110276
0.599,0.05153193
0.6,0.05199176
0.601,0.05248223
0.602,0.05294205
0.603,0.05340188
0.604,0.0538617
0.605,0.05432152
0.606,0.05478134
0.607,0.05524116
0.608,0.05570099
0.609,0.05616081
0.61,0.05662064
0.611,0.05708046
0.612,0.05754028
0.613,0.0580001
0.614,0.05849057
0.615,0.0589504
0.616,0.05941022
0.617,0.0599007
0.618,0.06032987
0.619,0.06082034
0.62,0.06128017
0.621,0.06173999
0.622,0.06226112
0.623,0.06272095
0.624,0.06318077
0.625,0.06367125
0.626,0.06413107
0.627,0.06462154
0.628,0.06511202
0.629,0.0656025
0.63,0.06606232
0.631,0.06652214
0.632,0.06704327
0.633,0.06750309
0.634,0.06796291
0.635,0.06848405
0.636,0.06897452
0.637,0.06943435
0.638,0.06995548
0.639,0.07044595
0.64,0.07093643
0.641,0.07142691
0.642,0.07191739
0.643,0.07237721
0.644,0.07286769
0.645,0.07335817
0.646,0.07384864
0.647,0.07433912
0.648,0.07486025
0.649,0.07532008
0.65,0.07581055
0.651,0.07633169
0.652,0.07679151
0.653,0.07728198
0.654,0.07780312
0.655,0.07826294
0.656,0.07875342
0.657,0.07927455
0.658,0.07976502
0.659,0.0802555
0.66,0.08077663
0.661,0.08126711
0.662,0.08172693
0.663,0.08227872
0.664,0.08273854
0.665,0.08322902
0.666,0.08375015
0.667,0.08424063
0.668,0.08470046
0.669,0.08525224
0.67,0.08571207
0.671,0.08620254
0.672,0.08672367
0.673,0.08721415
0.674,0.08767397
0.675,0.08819511
0.676,0.08868558
0.677,0.08917606
0.678,0.08966654
0.679,0.09015701
0.68,0.09064749
0.681,0.09113797
0.682,0.09162845
0.683,0.09211892
0.684,0.0926094
0.685,0.09309988
0.686,0.09359035
0.687,0.09408083
0.688,0.09457131
0.689,0.09506179
0.69,0.09555226
0.691,0.09604274
0.692,0.09653322
0.693,0.09702369
0.694,0.09751417
0.695,0.09800465
0.696,0.09849513
0.697,0.0989856
0.698,0.09950673
0.699,0.09996656
0.7,0.1001198
0.6990001,0.09966001
0.6980001,0.09913888
0.6970001,0.09867906
0.6960001,0.09821923
0.6950001,0.09772875
0.6940001,0.09729959
0.6930001,0.09683976
0.6920001,0.09634929
0.6910001,0.09588946
0.6900001,0.09542964
0.6890001,0.09493916
0.6880001,0.09444869
0.6870001,0.09398887
0.6860001,0.09352904
0.6850001,0.09303857
0.6840001,0.0926094
0.6830001,0.09211892
0.6820001,0.0916591
0.6810001,0.09119927
0.6800001,0.0907088
0.6790001,0.09024898
0.6780001,0.08978915
0.6770001,0.08929868
0.6760001,0.0888082
0.6750001,0.08837903
0.6740001,0.08785789
0.6730001,0.08742873
0.6720001,0.08696891
0.6710001,0.08647843
0.6700001,0.08601861
0.6690001,0.08555879
0.6680001,0.08506831
0.6670001,0.08460849
0.6660001,0.08414867
0.6650001,0.08365819
0.6640001,0.08319836
0.6630001,0.08273854
0.6620001,0.08224807
0.6610001,0.08178824
0.6600001,0.08135908
0.6590001,0.08089925
0.6580001,0.08040877
0.6570001,0.07997961
0.6560001,0.07948913
0.6550001,0.07899866
0.6540001,0.07856949
0.6530001,0.07807901
0.6520001,0.07761919
0.6510001,0.07719002
0.6500001,0.07666889
0.6490001,0.07623972
0.6480001,0.0757799
0.6470001,0.07528942
0.6460001,0.0748296
0.6450001,0.07440043
0.6440001,0.07390995
0.6430001,0.07345013
0.6420001,0.07299031
0.6410001,0.07249983
0.6400001,0.07207067
0.6390001,0.07161084
0.6380001,0.07115102
0.6370001,0.0706912
0.6360001,0.07023137
0.6350001,0.06977155
0.6340001,0.06928107
0.6330001,0.06882125
0.6320001,0.06836143
0.6310001,0.0679016
0.6300001,0.06744178
0.6290001,0.06698196
0.6280001,0.06652214
0.6270001,0.06606232
0.6260001,0.0656025
0.6250001,0.06514268
0.6240001,0.06471351
0.6230001,0.06422303
0.6220001,0.06376321
0.6210001,0.06333404
0.6200001,0.06284356
0.6190001,0.06238374
0.6180001,0.06195457
0.6170001,0.0614641
0.6160001,0.06100427
0.6150001,0.06057511
0.6140001,0.06008463
0.6130001,0.0596248
0.6120001,0.05919564
0.6110001,0.05873581
0.6100001,0.05827599
0.6090001,0.05784683
0.6080001,0.057387
0.6070001,0.05689653
0.6060001,0.05649801
0.6050001,0.05603819
0.6040001,0.05554771
0.6030001,0.05511854
0.6020001,0.05465872
0.6010001,0.0541989
0.6000001,0.05373908
0.5990001,0.05330991
0.5980001,0.05285009
0.5970001,0.05239027
0.5960001,0.0519611
0.5950001,0.05150127
0.5940001,0.05104145
0.5930001,0.05061228
0.5920001,0.05015246
0.5910001,0.04972329
0.5900001,0.04929413
0.5890001,0.04883431
0.5880001,0.04840514
0.5870001,0.04797597
0.5860001,0.04751615
0.5850001,0.04705633
0.5840001,0.0465965
0.5830001,0.04616734
0.5820001,0.04570751
0.5810001,0.04527835
0.5800001,0.04481852
0.5790001,0.04438936
0.5780001,0.04396019
0.5770001,0.04353102
0.5760001,0.0430712
0.5750001,0.04264203
0.5740001,0.04221286
0.5730001,0.04175304
0.5720001,0.04132387
0.5710001,0.04092536
0.5700001,0.04043488
0.5690001,0.04003637
0.5680001,0.0396072
0.5670001,0.03914738
0.5660001,0.03871821
0.5650001,0.03828905
0.5640001,0.03782922
0.5630001,0.03743071
0.5620001,0.03700154
0.5610001,0.03654172
0.5600001,0.03611255
0.5590001,0.03571404
0.5580001,0.03528487
0.5570001,0.0348557
0.5560001,0.03442654
0.5550001,0.03399737
0.5540001,0.0335682
0.5530001,0.03316969
0.5520001,0.03274052
0.5510001,0.03231135
0.5500001,0.03191284
0.5490001,0.03148368
0.5480001,0.03105451
0.5470001,0.03065599
0.5460001,0.03022683
0.5450001,0.02979766
0.5440001,0.02939915
0.5430001,0.02896998
0.5420001,0.02857147
0.5410001,0.02817295
0.5400001,0.02774378
0.5390001,0.02734527
0.5380001,0.02694676
0.5370001,0.02651759
0.5360001,0.02611908
0.5350001,0.02572057
0.5340001,0.02532205
0.5330001,0.02492354
0.5320001,0.02452503
0.5310001,0.02412652
0.5300001,0.023728
0.5290001,0.02332949
0.5280001,0.02293098
0.5270001,0.02253246
0.5260001,0.02213395
0.5250001,0.02176609
0.5240001,0.02136758
0.5230001,0.02096907
0.5220001,0.02060121
0.5210001,0.02023335
0.5200001,0.01983484
0.5190001,0.01946698
0.5180001,0.01906847
0.5170001,0.01870061
0.5160001,0.01833276
0.5150001,0.0179649
0.5140001,0.01759704
0.5130001,0.01722918
0.5120001,0.01686132
0.5110001,0.01649346
0.5100001,0.01612561
0.5090001,0.0157884
0.5080001,0.01542055
0.5070001,0.01505269
0.5060001,0.01471548
0.5050001,0.01434763
0.5040001,0.01401042
0.5030001,0.01367322
0.5020001,0.01330536
0.5010001,0.01247663
0.5000001,0.01214249
0.4990001,0.01181449
0.4980001,0.01148341
0.4970001,0.01115847
0.4960001,0.01083966
0.4950001,0.01051472
0.4940001,0.01019898
0.4930001,0.009886298
0.4920001,0.009570553
0.4910001,0.00926707
0.4900001,0.008963588
0.4890001,0.008660105
0.4880001,0.008362753
0.4870001,0.008068467
0.4860001,0.007780312
0.4850001,0.007492156
0.4840001,0.007207066
0.4830001,0.006931173
0.4820001,0.006652214
0.4810001,0.006379386
0.4800001,0.006112689
0.4790001,0.005845992
0.4780001,0.005588491
0.4770001,0.005330991
0.4760001,0.005076556
0.4750001,0.004834383
0.4740001,0.004586079
0.4730001,0.004346971
0.4720001,0.004113995
0.4710001,0.003881018
0.4700001,0.003657237
0.4690001,0.003436523
0.4680001,0.003218873
0.4670001,0.003010421
0.4660001,0.002798902
0.4650001,0.002599646
0.4640001,0.002403455
0.4630001,0.002207264
0.4620001,0.00202027
0.4610001,0.001836341
0.4600001,0.001655477
0.4590001,0.001489941
0.4580001,0.001318274
0.4570001,0.001155804
0.4560001,0.0009671715
0.4550001,0.000811445
0.4540001,0.0006639952
0.4530001,0.000518998
0.4520001,0.000379825
0.4510001,0.000246783
0.4500001,0.0001149673
0.4490001,-9.184775E-06
0.4480001,-0.0001346655
0.4470001,-0.0002531464
0.4460001,-0.0003600091
0.4450001,-0.0004683941
0.4440001,-0.0005717009
0.4430001,-0.0006664242
0.4420001,-0.0007651328
0.4410001,-0.0008561776
0.4400001,-0.0009389457
0.4390001,-0.001026005
0.4380001,-0.001103869
0.4370001,-0.001178666
0.4360001,-0.001253771
0.4350001,-0.001318453
0.4340001,-0.001385587
0.4330001,-0.001448429
0.4320001,-0.00150606
0.4310001,-0.001564917
0.4300001,-0.001617031
0.4290001,-0.00166945
0.4280001,-0.001719418
0.4270001,-0.001761415
0.4260001,-0.001807704
0.4250001,-0.001848168
0.4240001,-0.001885873
0.4230001,-0.001926031
0.4220001,-0.001959751
0.4210001,-0.001994391
0.4200001,-0.002027192
0.4190001,-0.002051716
0.4180001,-0.00208329
0.4170001,-0.002109347
0.4160001,-0.002131725
0.4150001,-0.002159314
0.4140001,-0.00217924
0.4130001,-0.002198246
0.4120001,-0.002222463
0.4110001,-0.00223871
0.4100001,-0.002262008
0.4090001,-0.002286225
0.4080001,-0.002296648
0.4070001,-0.002311056
0.4060001,-0.002322091
0.4050001,-0.002334353
0.4040001,-0.002346922
0.4030001,-0.002358264
0.4020001,-0.002370526
0.4010001,-0.002378496
0.4000001,-0.002385547
0.3990001,-0.002398728
0.3980001,-0.002404553
0.3970001,-0.002413136
0.3960001,-0.002423252
0.3950001,-0.002426931
0.3940001,-0.002436741
0.3930001,-0.002441952
0.3920001,-0.00244563
0.3910001,-0.00245544
0.3900001,-0.002459118
0.3890001,-0.002462797
0.3880001,-0.002468928
0.3870001,-0.00247138
0.3860001,-0.002476285
0.3850001,-0.002480577
0.3840001,-0.002481496
0.3830001,-0.002486708
0.3820001,-0.002488854
0.3810001,-0.002492532
0.3800001,-0.002496211
0.3790001,-0.002495904
0.3780001,-0.002501729
0.3770001,-0.002502955
0.3760001,-0.002503261
0.3750001,-0.002508166
0.3740001,-0.002506327
0.3730001,-0.002507553
0.3720001,-0.002510006
0.3710001,-0.002510006
0.3700001,-0.002513377
0.3690001,-0.002514297
0.3680001,-0.002510006
0.3670001,-0.00251491
0.3660001,-0.002513684
0.3650001,-0.002513071
0.3640001,-0.00251583
0.3630001,-0.002512765
0.3620001,-0.002513377
0.3610001,-0.002513991
0.3600001,-0.002511845
0.3590001,-0.002512765
0.3580001,-0.002513377
0.3570001,-0.002512765
0.3560001,-0.002512151
0.3550001,-0.002509086
0.3540001,-0.002510006
0.3530001,-0.00250786
0.3520001,-0.002507247
0.3510001,-0.002509699
0.3500001,-0.002502955
0.3490001,-0.002505101
0.3480001,-0.00250694
0.3470001,-0.002500196
0.3460001,-0.002504181
0.3450001,-0.002504181
0.3440001,-0.002500196
0.3430001,-0.002502648
0.3420001,-0.002501116
0.3410001,-0.002497131
0.3400001,-0.002500502
0.3390001,-0.00249989
