EXPID. 0621
[电化学]: CV : 0 >> 0.7 >> 0 >> 0(V) @ 0.01(V/s) X 10(Seg)
起始电位 (V),0
上限电位 (V),0.7
下限电位 (V),0
终止电位 (V),0
扫速 (V/s),0.01
电解液 信息:
KOH,1
0.001,5.698849E-05
0.002,5.888909E-05
0.003,6.029921E-05
0.004,6.183195E-05
0.005,6.318076E-05
0.006,6.434564E-05
0.007,6.56638E-05
0.008,6.685934E-05
0.009,6.814684E-05
0.01,6.9465E-05
0.011,7.062989E-05
0.012,7.200935E-05
0.013,7.329685E-05
0.014,7.458436E-05
0.015,7.596382E-05
0.016,7.734329E-05
0.017,7.872276E-05
0.018,8.010223E-05
0.019,8.1543E-05
0.02,8.307574E-05
0.021,8.454718E-05
0.022,8.611057E-05
0.023,8.779659E-05
0.024,8.923736E-05
0.025,9.086207E-05
0.026,9.26094E-05
0.027,9.42341E-05
0.028,9.616536E-05
0.029,9.791268E-05
0.03,9.953738E-05
0.031,0.0001016219
0.032,0.0001035225
0.033,0.0001054538
0.034,0.0001075076
0.035,0.0001094695
0.036,0.0001117687
0.037,0.0001139758
0.038,0.0001161829
0.039,0.000118666
0.04,0.0001209651
0.041,0.0001234481
0.042,0.0001260538
0.043,0.0001285675
0.044,0.0001314797
0.045,0.0001343306
0.046,0.0001370589
0.047,0.0001402163
0.048,0.0001433125
0.049,0.0001464699
0.05,0.0001499033
0.051,0.0001533979
0.052,0.0001570765
0.053,0.0001607857
0.054,0.0001646482
0.055,0.0001688786
0.056,0.000172925
0.057,0.0001774006
0.058,0.0001820908
0.059,0.0001866891
0.06,0.0001919004
0.061,0.0001970504
0.062,0.000202323
0.063,0.0002082394
0.064,0.0002141865
0.065,0.0002202867
0.066,0.0002270002
0.067,0.0002335603
0.068,0.0002409481
0.069,0.0002482746
0.07,0.0002559996
0.071,0.0002643684
0.072,0.0002727678
0.073,0.0002816884
0.074,0.0002911607
0.075,0.0003047207
0.076,0.0003148368
0.077,0.0003252594
0.078,0.0003366017
0.079,0.0003485571
0.08,0.0003605125
0.081,0.0003733875
0.082,0.0003868756
0.083,0.0004006703
0.084,0.0004156911
0.085,0.0004310186
0.086,0.0004466525
0.087,0.0004638192
0.088,0.0004809859
0.089,0.0004993788
0.09,0.0005183848
0.091,0.0005380039
0.092,0.0005588492
0.093,0.0005803076
0.094,0.000602379
0.095,0.0006259833
0.096,0.0006502006
0.097,0.000675031
0.098,0.0007013941
0.099,0.0007280639
0.1,0.0007571859
0.101,0.000786308
0.102,0.0008169628
0.103,0.0008491504
0.104,0.000881338
0.105,0.0009156714
0.106,0.0009515375
0.107,0.0009874037
0.108,0.001026335
0.109,0.001065573
0.11,0.001106038
0.111,0.001148648
0.112,0.001192178
0.113,0.001237241
0.114,0.001284449
0.115,0.001332577
0.116,0.00138377
0.117,0.001434657
0.118,0.00148769
0.119,0.001543789
0.12,0.001599581
0.121,0.001658438
0.122,0.001720054
0.123,0.001781057
0.124,0.001846352
0.125,0.00191226
0.126,0.001979394
0.127,0.0020499
0.128,0.002121019
0.129,0.002195204
0.13,0.002271228
0.131,0.002348785
0.132,0.00243002
0.133,0.002510949
0.134,0.002596169
0.135,0.002682922
0.136,0.002769982
0.137,0.002861947
0.138,0.002954524
0.139,0.003083992
0.14,0.003182088
0.141,0.003280183
0.142,0.003381344
0.143,0.00348557
0.144,0.003589797
0.145,0.003700154
0.146,0.003810511
0.147,0.003923934
0.148,0.004043488
0.149,0.004156911
0.15,0.004282596
0.151,0.004405215
0.152,0.004527835
0.153,0.004662716
0.154,0.004794532
0.155,0.004929413
0.156,0.005067359
0.157,0.005205306
0.158,0.005352449
0.159,0.005502658
0.16,0.005649801
0.161,0.005806141
0.162,0.005965546
0.163,0.006124951
0.164,0.006293552
0.165,0.006462154
0.166,0.006633821
0.167,0.006811619
0.168,0.006989417
0.169,0.007176412
0.17,0.007363406
0.171,0.007556531
0.172,0.007752722
0.173,0.007951979
0.174,0.0081543
0.175,0.008362753
0.176,0.008571207
0.177,0.008788855
0.178,0.009006504
0.179,0.009224153
0.18,0.009454065
0.181,0.009674779
0.182,0.009907756
0.183,0.0101438
0.184,0.01037371
0.185,0.01061895
0.186,0.01086112
0.187,0.01110023
0.188,0.01134853
0.189,0.01159377
0.19,0.01184208
0.191,0.01209344
0.192,0.01234175
0.193,0.01259925
0.194,0.01285368
0.195,0.01310199
0.196,0.01336562
0.197,0.01361699
0.198,0.01387142
0.199,0.01413812
0.2,0.01438643
0.201,0.01464699
0.202,0.01491062
0.203,0.01516199
0.204,0.01542256
0.205,0.01568926
0.206,0.01594369
0.207,0.01620426
0.208,0.01646176
0.209,0.01671926
0.21,0.01697982
0.211,0.01723426
0.212,0.01749483
0.213,0.01774619
0.214,0.01800676
0.215,0.01826119
0.216,0.01851563
0.217,0.01877313
0.218,0.01902757
0.219,0.01928507
0.22,0.01953644
0.221,0.01979087
0.222,0.02004531
0.223,0.02029668
0.224,0.02055111
0.225,0.02080248
0.226,0.02104772
0.227,0.02130522
0.228,0.02155659
0.229,0.02180183
0.23,0.02205626
0.231,0.0223015
0.232,0.02254061
0.233,0.02280118
0.234,0.02304335
0.235,0.02328246
0.236,0.02354302
0.237,0.02377906
0.238,0.0240243
0.239,0.02427567
0.24,0.02451172
0.241,0.02476308
0.242,0.02500832
0.243,0.0252413
0.244,0.02549267
0.245,0.02572565
0.246,0.02596476
0.247,0.02621306
0.248,0.02643991
0.249,0.02667901
0.25,0.02692425
0.251,0.02714803
0.252,0.0273902
0.253,0.02762625
0.254,0.02784696
0.255,0.02808607
0.256,0.02831291
0.257,0.02853976
0.258,0.02876967
0.259,0.02899038
0.26,0.02921723
0.261,0.02944408
0.262,0.02966786
0.263,0.02989164
0.264,0.03090123
0.265,0.03111582
0.266,0.0313304
0.267,0.03154498
0.268,0.03175957
0.269,0.03197415
0.27,0.03218874
0.271,0.03240332
0.272,0.0326179
0.273,0.03280183
0.274,0.03301642
0.275,0.033231
0.276,0.03341493
0.277,0.03362951
0.278,0.03381344
0.279,0.03402802
0.28,0.03421196
0.281,0.03439588
0.282,0.03457981
0.283,0.03476374
0.284,0.03497833
0.285,0.0351316
0.286,0.03531553
0.287,0.03549946
0.288,0.03565273
0.289,0.03583666
0.29,0.03598994
0.291,0.03617386
0.292,0.03632713
0.293,0.03648041
0.294,0.03666434
0.295,0.03678696
0.296,0.03694023
0.297,0.03709351
0.298,0.03724678
0.299,0.0373694
0.3,0.03749202
0.301,0.0376453
0.302,0.03776791
0.303,0.03789053
0.304,0.03801315
0.305,0.03810512
0.306,0.03822774
0.307,0.03835035
0.308,0.03844232
0.309,0.03856494
0.31,0.0386569
0.311,0.03871821
0.312,0.03881018
0.313,0.03890214
0.314,0.03896345
0.315,0.03905542
0.316,0.03911673
0.317,0.03917804
0.318,0.03920869
0.319,0.03927
0.32,0.03933131
0.321,0.03936196
0.322,0.03939262
0.323,0.03942328
0.324,0.03945393
0.325,0.03945393
0.326,0.03948459
0.327,0.03948459
0.328,0.03948459
0.329,0.03948459
0.33,0.03948459
0.331,0.03948459
0.332,0.03945393
0.333,0.03942328
0.334,0.03939262
0.335,0.03936196
0.336,0.03933131
0.337,0.03930065
0.338,0.03923934
0.339,0.03920869
0.34,0.03914738
0.341,0.03908607
0.342,0.03905542
0.343,0.03896345
0.344,0.0389328
0.345,0.03887149
0.346,0.03877952
0.347,0.03871821
0.348,0.0386569
0.349,0.03859559
0.35,0.03853428
0.351,0.03847298
0.352,0.03841167
0.353,0.03835035
0.354,0.03828905
0.355,0.03822774
0.356,0.03816643
0.357,0.03810512
0.358,0.03807446
0.359,0.03804381
0.36,0.03795184
0.361,0.03792119
0.362,0.03789053
0.363,0.03782922
0.364,0.03779857
0.365,0.03773726
0.366,0.03770661
0.367,0.0376453
0.368,0.03758398
0.369,0.03752267
0.37,0.03746137
0.371,0.03740006
0.372,0.03730809
0.373,0.03721613
0.374,0.03712416
0.375,0.03700154
0.376,0.03687892
0.377,0.03672565
0.378,0.03657238
0.379,0.03638845
0.38,0.03617386
0.381,0.03592863
0.382,0.03568339
0.383,0.03537684
0.384,0.03494767
0.385,0.03464112
0.386,0.0341813
0.387,0.03366017
0.388,0.03316969
0.389,0.03255659
0.39,0.03185153
0.391,0.03114647
0.392,0.03034945
0.393,0.02949111
0.394,0.02860212
0.395,0.02771313
0.396,0.02679349
0.397,0.02587384
0.398,0.0249542
0.399,0.02409586
0.4,0.02323752
0.401,0.02240985
0.402,0.02164347
0.403,0.0208771
0.404,0.0202027
0.405,0.01955895
0.406,0.0189152
0.407,0.01833276
0.408,0.01778097
0.409,0.01722918
0.41,0.0167387
0.411,0.01624822
0.412,0.01581906
0.413,0.01535923
0.414,0.01496072
0.415,0.01456221
0.416,0.01419435
0.417,0.01385715
0.418,0.01348929
0.419,0.01318274
0.42,0.01237547
0.421,0.01208425
0.422,0.01183288
0.423,0.01157538
0.424,0.01132707
0.425,0.01110942
0.426,0.01088871
0.427,0.01067719
0.428,0.0104902
0.429,0.01029094
0.43,0.01011927
0.431,0.009953739
0.432,0.009782071
0.433,0.009637994
0.434,0.009487785
0.435,0.009343707
0.436,0.009221088
0.437,0.009089272
0.438,0.008969719
0.439,0.008862427
0.44,0.008749004
0.441,0.008650908
0.442,0.008558944
0.443,0.008457784
0.444,0.008384212
0.445,0.008289182
0.446,0.008194151
0.447,0.008142038
0.448,0.008065402
0.449,0.008004092
0.45,0.007958109
0.451,0.007899866
0.452,0.007856948
0.453,0.007814032
0.454,0.007777246
0.455,0.007734329
0.456,0.007712871
0.457,0.007691412
0.458,0.007669954
0.459,0.007648496
0.46,0.007651561
0.461,0.007642365
0.462,0.007645431
0.463,0.007654627
0.464,0.007663823
0.465,0.007685281
0.466,0.007709805
0.467,0.00774046
0.468,0.007783377
0.469,0.007823228
0.47,0.007872276
0.471,0.007933586
0.472,0.007988765
0.473,0.00805927
0.474,0.008142038
0.475,0.008221741
0.476,0.00831677
0.477,0.008417931
0.478,0.008525223
0.479,0.008635581
0.48,0.008761265
0.481,0.008893081
0.482,0.009027964
0.483,0.009172041
0.484,0.00932838
0.485,0.009484719
0.486,0.009653321
0.487,0.009831119
0.488,0.01001198
0.489,0.01020511
0.49,0.01039823
0.491,0.01060362
0.492,0.0108182
0.493,0.01103585
0.494,0.0112627
0.495,0.01149568
0.496,0.01172865
0.497,0.01198309
0.498,0.01222833
0.499,0.01248583
0.5,0.01275865
0.501,0.01302228
0.502,0.01329205
0.503,0.01357714
0.504,0.01385916
0.505,0.01415038
0.506,0.0144508
0.507,0.01474815
0.508,0.01505777
0.509,0.01536432
0.51,0.01568006
0.511,0.01599887
0.512,0.01632688
0.513,0.01665182
0.514,0.01698595
0.515,0.01732009
0.516,0.01765423
0.517,0.01800063
0.518,0.01834703
0.519,0.01869036
0.52,0.01904596
0.521,0.01940155
0.522,0.01975715
0.523,0.02011888
0.524,0.02048674
0.525,0.0208454
0.526,0.02121632
0.527,0.02158725
0.528,0.02196123
0.529,0.02233829
0.53,0.02271841
0.531,0.02309853
0.532,0.02347865
0.533,0.02386183
0.534,0.02425115
0.535,0.02463434
0.536,0.02502059
0.537,0.0254191
0.538,0.02580535
0.539,0.02619773
0.54,0.02660237
0.541,0.02699169
0.542,0.0273902
0.543,0.02779485
0.544,0.02819642
0.545,0.028598
0.546,0.02900878
0.547,0.02941036
0.548,0.02982113
0.549,0.03023804
0.55,0.03145302
0.551,0.03185153
0.552,0.0322807
0.553,0.03267921
0.554,0.03310838
0.555,0.03353755
0.556,0.03396672
0.557,0.03439588
0.558,0.03482505
0.559,0.03528487
0.56,0.03571404
0.561,0.03614321
0.562,0.03657238
0.563,0.0370322
0.564,0.03749202
0.565,0.03792119
0.566,0.03838101
0.567,0.03881018
0.568,0.03923934
0.569,0.03972982
0.57,0.04015899
0.571,0.04058816
0.572,0.04107863
0.573,0.0415078
0.574,0.04193697
0.575,0.04242745
0.576,0.04285662
0.577,0.04331644
0.578,0.04377626
0.579,0.04420543
0.58,0.04466525
0.581,0.04512507
0.582,0.04555424
0.583,0.04604472
0.584,0.04650454
0.585,0.04696436
0.586,0.04739353
0.587,0.04788401
0.588,0.04831317
0.589,0.048773
0.59,0.04926347
0.591,0.04969264
0.592,0.05015246
0.593,0.05061228
0.594,0.05107211
0.595,0.05156258
0.596,0.05202241
0.597,0.05248223
0.598,0.05294205
0.599,0.05340188
0.6,0.05389235
0.601,0.05435218
0.602,0.054812
0.603,0.05530247
0.604,0.05579295
0.605,0.05622212
0.606,0.0567126
0.607,0.05717242
0.608,0.05766289
0.609,0.05815337
0.61,0.05861319
0.611,0.05910368
0.612,0.05959415
0.613,0.06005397
0.614,0.06054445
0.615,0.06100427
0.616,0.06149475
0.617,0.06198522
0.618,0.06244505
0.619,0.06293552
0.62,0.063426
0.621,0.06388583
0.622,0.0643763
0.623,0.06486678
0.624,0.0653266
0.625,0.06581708
0.626,0.0662769
0.627,0.06676738
0.628,0.06725786
0.629,0.06774833
0.63,0.06820816
0.631,0.06872929
0.632,0.06918911
0.633,0.06964894
0.634,0.07017007
0.635,0.07066055
0.636,0.07112037
0.637,0.07161084
0.638,0.07207067
0.639,0.07256114
0.64,0.07305162
0.641,0.07351144
0.642,0.07400192
0.643,0.07449239
0.644,0.07495221
0.645,0.07544269
0.646,0.07593317
0.647,0.076393
0.648,0.07688347
0.649,0.07737394
0.65,0.07786443
0.651,0.0783549
0.652,0.07884538
0.653,0.0793052
0.654,0.07982634
0.655,0.08028616
0.656,0.08077663
0.657,0.08126711
0.658,0.08169628
0.659,0.08221742
0.66,0.08270789
0.661,0.08319836
0.662,0.08368885
0.663,0.08417932
0.664,0.08463915
0.665,0.08516028
0.666,0.0856201
0.667,0.08611058
0.668,0.08663171
0.669,0.08709153
0.67,0.08758201
0.671,0.08810314
0.672,0.08856296
0.673,0.08905344
0.674,0.08954392
0.675,0.09000374
0.676,0.09052487
0.677,0.09101535
0.678,0.09150583
0.679,0.0919963
0.68,0.09245612
0.681,0.09297726
0.682,0.09346773
0.683,0.09392755
0.684,0.09444869
0.685,0.09493916
0.686,0.09539898
0.687,0.09592012
0.688,0.09641059
0.689,0.09687041
0.69,0.0973609
0.691,0.09788202
0.692,0.09818857
0.693,0.09883233
0.694,0.0989856
0.695,0.09996656
0.696,0.1000585
0.697,0.1008862
0.698,0.1011008
0.699,0.1018672
0.7,0.1017752
0.6990001,0.101438
0.6980001,0.1008862
0.6970001,0.1004877
0.6960001,0.0999359
0.6950001,0.09953739
0.6940001,0.09901626
0.6930001,0.09852578
0.6920001,0.09815792
0.6910001,0.09760614
0.6900001,0.09714631
0.6890001,0.09671714
0.6880001,0.09625732
0.6870001,0.09573619
0.6860001,0.09533768
0.6850001,0.09481654
0.6840001,0.09435672
0.6830001,0.09386625
0.6820001,0.09340642
0.6810001,0.09291594
0.6800001,0.09245612
0.6790001,0.09196565
0.6780001,0.09153648
0.6770001,0.091046
0.6760001,0.09058618
0.6750001,0.09012636
0.6740001,0.08966654
0.6730001,0.08917606
0.6720001,0.08871623
0.6710001,0.08822576
0.6700001,0.08776593
0.6690001,0.08730611
0.6680001,0.08684629
0.6670001,0.08635581
0.6660001,0.08589599
0.6650001,0.08543617
0.6640001,0.08494569
0.6630001,0.08448587
0.6620001,0.08402605
0.6610001,0.08353557
0.6600001,0.08307575
0.6590001,0.08258527
0.6580001,0.08215611
0.6570001,0.08166563
0.6560001,0.08123646
0.6550001,0.08074598
0.6540001,0.08028616
0.6530001,0.07979568
0.6520001,0.07936651
0.6510001,0.07887604
0.6500001,0.07841621
0.6490001,0.07795639
0.6480001,0.07749657
0.6470001,0.07700609
0.6460001,0.07654627
0.6450001,0.07608645
0.6440001,0.07562663
0.6430001,0.07516681
0.6420001,0.07467633
0.6410001,0.07421651
0.6400001,0.07375668
0.6390001,0.07329686
0.6380001,0.07283704
0.6370001,0.07237721
0.6360001,0.07188674
0.6350001,0.07145756
0.6340001,0.07099774
0.6330001,0.07050727
0.6320001,0.07004745
0.6310001,0.06958763
0.6300001,0.0691278
0.6290001,0.06866798
0.6280001,0.06820816
0.6270001,0.06774833
0.6260001,0.06728851
0.6250001,0.06682869
0.6240001,0.06636887
0.6230001,0.06590905
0.6220001,0.06544922
0.6210001,0.0649894
0.6200001,0.06452958
0.6190001,0.0640391
0.6180001,0.06360994
0.6170001,0.06315011
0.6160001,0.06265964
0.6150001,0.06223046
0.6140001,0.06177064
0.6130001,0.06128017
0.6120001,0.060851
0.6110001,0.06039118
0.6100001,0.0599007
0.6090001,0.05947153
0.6080001,0.05901171
0.6070001,0.05855189
0.6060001,0.05812272
0.6050001,0.05766289
0.6040001,0.05720307
0.6030001,0.05674325
0.6020001,0.05628343
0.6010001,0.05582361
0.6000001,0.05539444
0.5990001,0.05493462
0.5980001,0.0544748
0.5970001,0.05401497
0.5960001,0.05355515
0.5950001,0.05312598
0.5940001,0.05266616
0.5930001,0.05220634
0.5920001,0.05177717
0.5910001,0.05131735
0.5900001,0.05088818
0.5890001,0.05042836
0.5880001,0.04999919
0.5870001,0.04953937
0.5860001,0.0491102
0.5850001,0.04865038
0.5840001,0.04822121
0.5830001,0.04776139
0.5820001,0.04730156
0.5810001,0.04690305
0.5800001,0.04644323
0.5790001,0.04598341
0.5780001,0.04555424
0.5770001,0.04509442
0.5760001,0.04466525
0.5750001,0.04420543
0.5740001,0.04377626
0.5730001,0.04334709
0.5720001,0.04288727
0.5710001,0.0424581
0.5700001,0.04202893
0.5690001,0.04159977
0.5680001,0.04113995
0.5670001,0.04071078
0.5660001,0.04028161
0.5650001,0.03985244
0.5640001,0.03942328
0.5630001,0.03899411
0.5620001,0.03853428
0.5610001,0.03810512
0.5600001,0.03767595
0.5590001,0.03724678
0.5580001,0.03681761
0.5570001,0.03638845
0.5560001,0.03595928
0.5550001,0.03553011
0.5540001,0.0351316
0.5530001,0.03467178
0.5520001,0.03427326
0.5510001,0.03384409
0.5500001,0.03341493
0.5490001,0.03298576
0.5480001,0.03258725
0.5470001,0.03215808
0.5460001,0.03172891
0.5450001,0.0313304
0.5440001,0.03090123
0.5430001,0.03047206
0.5420001,0.03007355
0.5410001,0.02964438
0.5400001,0.02924587
0.5390001,0.0288167
0.5380001,0.02841819
0.5370001,0.02801968
0.5360001,0.02762116
0.5350001,0.027192
0.5340001,0.02679349
0.5330001,0.02639497
0.5320001,0.02599646
0.5310001,0.02559795
0.5300001,0.02516878
0.5290001,0.02477027
0.5280001,0.02440241
0.5270001,0.0240039
0.5260001,0.02360538
0.5250001,0.02320687
0.5240001,0.02280836
0.5230001,0.02240985
0.5220001,0.02201133
0.5210001,0.02164347
0.5200001,0.02124496
0.5190001,0.0208771
0.5180001,0.02047859
0.5170001,0.02011073
0.5160001,0.01971222
0.5150001,0.01934436
0.5140001,0.01894585
0.5130001,0.01860865
0.5120001,0.01824079
0.5110001,0.01784228
0.5100001,0.01750507
0.5090001,0.01713721
0.5080001,0.01676936
0.5070001,0.0164015
0.5060001,0.01603364
0.5050001,0.01569644
0.5040001,0.01532858
0.5030001,0.01499138
0.5020001,0.01462352
0.5010001,0.01425566
0.5000001,0.01391846
0.4990001,0.01358126
0.4980001,0.01324405
0.4970001,0.01239693
0.4960001,0.01206585
0.4950001,0.01173785
0.4940001,0.01141597
0.4930001,0.01109103
0.4920001,0.01077222
0.4910001,0.01045648
0.4900001,0.01014073
0.4890001,0.009834184
0.4880001,0.009527637
0.4870001,0.009218022
0.4860001,0.008923736
0.4850001,0.008626385
0.4840001,0.008329033
0.4830001,0.008043943
0.4820001,0.007755788
0.4810001,0.007470698
0.4800001,0.007191739
0.4790001,0.006915845
0.4780001,0.006646083
0.4770001,0.006379386
0.4760001,0.006112689
0.4750001,0.005855188
0.4740001,0.005597688
0.4730001,0.005346318
0.4720001,0.005104146
0.4710001,0.004858906
0.4700001,0.004622865
0.4690001,0.004389888
0.4680001,0.004156911
0.4670001,0.003936196
0.4660001,0.003712416
0.4650001,0.003497832
0.4640001,0.003292445
0.4630001,0.003083992
0.4620001,0.00288167
0.4610001,0.002685479
0.4600001,0.002492354
0.4590001,0.002308425
0.4580001,0.002124496
0.4570001,0.001949764
0.4560001,0.001784228
0.4550001,0.001615626
0.4540001,0.001453156
0.4530001,0.001296816
0.4520001,0.001146607
0.4510001,0.0009687042
0.4500001,0.0008246265
0.4490001,0.000687906
0.4480001,0.0005570099
0.4470001,0.00042734
0.4460001,0.0003071731
0.4450001,0.0001894585
0.4440001,7.297016E-05
0.4430001,-3.739772E-05
0.4420001,-0.0001432795
0.4410001,-0.0002435821
0.4400001,-0.0003367114
0.4390001,-0.0004313017
0.4380001,-0.0005152959
0.4370001,-0.0005995968
0.4360001,-0.0006811386
0.4350001,-0.0007522578
0.4340001,-0.0008273621
0.4330001,-0.0008954158
0.4320001,-0.0009579517
0.4310001,-0.001025086
0.4300001,-0.001081184
0.4290001,-0.001137896
0.4280001,-0.001194607
0.4270001,-0.001239976
0.4260001,-0.001289024
0.4250001,-0.001335313
0.4240001,-0.001374551
0.4230001,-0.001417161
0.4220001,-0.00145548
0.4210001,-0.001490119
0.4200001,-0.001525066
0.4190001,-0.001553882
0.4180001,-0.001585763
0.4170001,-0.001612126
0.4160001,-0.001638489
0.4150001,-0.001666385
0.4140001,-0.001685697
0.4130001,-0.001707156
0.4120001,-0.001730147
0.4110001,-0.001745781
0.4100001,-0.001771531
0.4090001,-0.001794215
0.4080001,-0.001803718
0.4070001,-0.001819352
0.4060001,-0.001830388
0.4050001,-0.001841117
0.4040001,-0.001854605
0.4030001,-0.001864108
0.4020001,-0.001875144
0.4010001,-0.001884341
0.4000001,-0.001891085
0.3990001,-0.001901507
0.3980001,-0.001907638
0.3970001,-0.001917141
0.3960001,-0.001925418
0.3950001,-0.00192787
0.3940001,-0.001936454
0.3930001,-0.001940439
0.3920001,-0.001943504
0.3910001,-0.001953007
0.3900001,-0.001955766
0.3890001,-0.001958832
0.3880001,-0.001965576
0.3870001,-0.001965882
0.3860001,-0.001970481
0.3850001,-0.001975385
0.3840001,-0.001974466
0.3830001,-0.001979371
0.3820001,-0.001981516
0.3810001,-0.001983969
0.3800001,-0.001987647
0.3790001,-0.001987647
0.3780001,-0.001991633
0.3770001,-0.001993778
0.3760001,-0.001993778
0.3750001,-0.001998377
0.3740001,-0.001997457
0.3730001,-0.001999909
0.3720001,-0.002003281
0.3710001,-0.002003894
0.3700001,-0.00200696
0.3690001,-0.002007573
0.3680001,-0.002006347
0.3670001,-0.002010638
0.3660001,-0.002010025
0.3650001,-0.002011558
0.3640001,-0.002015237
0.3630001,-0.002013091
0.3620001,-0.002016463
0.3610001,-0.002018302
0.3600001,-0.002017383
0.3590001,-0.002022287
0.3580001,-0.002025046
0.3570001,-0.002025966
0.3560001,-0.002028112
0.3550001,-0.002027499
0.3540001,-0.002031484
0.3530001,-0.00203179
0.3520001,-0.002033936
0.3510001,-0.00203976
0.3500001,-0.002038534
0.3490001,-0.0020416
0.3480001,-0.002047424
0.3470001,-0.002046505
0.3460001,-0.002053248
0.3450001,-0.00205938
0.3440001,-0.002058767
0.3430001,-0.002065511
0.3420001,-0.002068576
0.3410001,-0.002072254
