EXPID. 0905
[电化学]: CV : 0 >> 0.7 >> 0 >> 0(V) @ 0.01(V/s) X 10(Seg)
起始电位 (V),0
上限电位 (V),0.7
下限电位 (V),0
终止电位 (V),0
扫速 (V/s),0.01
电解液 信息:
KOH,1
0.001,5.514919E-06
0.002,6.039118E-06
0.003,6.345665E-06
0.004,6.731917E-06
0.005,6.986351E-06
0.006,7.173346E-06
0.007,7.535073E-06
0.008,7.743525E-06
0.009,7.994895E-06
0.01,8.252396E-06
0.011,8.378081E-06
0.012,8.666236E-06
0.013,8.902278E-06
0.014,9.11073E-06
0.015,9.334511E-06
0.016,9.527636E-06
0.017,9.791268E-06
0.018,9.975197E-06
0.019,1.016219E-05
0.02,1.041356E-05
0.021,1.064347E-05
0.022,1.079981E-05
0.023,1.103892E-05
0.024,1.125044E-05
0.025,1.144969E-05
0.026,1.166428E-05
0.027,1.182062E-05
0.028,1.215169E-05
0.029,1.228964E-05
0.03,1.241532E-05
0.031,1.266056E-05
0.032,1.288127E-05
0.033,1.30836E-05
0.034,1.33319E-05
0.035,1.348824E-05
0.036,1.371508E-05
0.037,1.389901E-05
0.038,1.413506E-05
0.039,1.431899E-05
0.04,1.446919E-05
0.041,1.460101E-05
0.042,1.478187E-05
0.043,1.493515E-05
0.044,1.514053E-05
0.045,1.528461E-05
0.046,1.537351E-05
0.047,1.555437E-05
0.048,1.569539E-05
0.049,1.581187E-05
0.05,1.607857E-05
0.051,1.624717E-05
0.052,1.65108E-05
0.053,1.669167E-05
0.054,1.680509E-05
0.055,1.699822E-05
0.056,1.716069E-05
0.057,1.724959E-05
0.058,1.741512E-05
0.059,1.751322E-05
0.06,1.769715E-05
0.061,1.78259E-05
0.062,1.803128E-05
0.063,1.827346E-05
0.064,1.847578E-05
0.065,1.866277E-05
0.066,1.8767E-05
0.067,1.894173E-05
0.068,1.910727E-05
0.069,1.926361E-05
0.07,1.938623E-05
0.071,1.954563E-05
0.072,1.966212E-05
0.073,1.98062E-05
0.074,1.995641E-05
0.075,2.012501E-05
0.076,2.032733E-05
0.077,2.053272E-05
0.078,2.070438E-05
0.079,2.094043E-05
0.08,2.109064E-05
0.081,2.130216E-05
0.082,2.154739E-05
0.083,2.170373E-05
0.084,2.187847E-05
0.085,2.202561E-05
0.086,2.218195E-05
0.087,2.243332E-05
0.088,2.257433E-05
0.089,2.275519E-05
0.09,2.291153E-05
0.091,2.305868E-05
0.092,2.327326E-05
0.093,2.338668E-05
0.094,2.403455E-05
0.095,2.424914E-05
0.096,2.449437E-05
0.097,2.480092E-05
0.098,2.498485E-05
0.099,2.510747E-05
0.1,2.538336E-05
0.101,2.553664E-05
0.102,2.578188E-05
0.103,2.599646E-05
0.104,2.618039E-05
0.105,2.639497E-05
0.106,2.673218E-05
0.107,2.697741E-05
0.108,2.728396E-05
0.109,2.75292E-05
0.11,2.78051E-05
0.111,2.808099E-05
0.112,2.826491E-05
0.113,2.854081E-05
0.114,2.884736E-05
0.115,2.912325E-05
0.116,2.939914E-05
0.117,2.967504E-05
0.118,2.995093E-05
0.119,3.031879E-05
0.12,3.059468E-05
0.121,3.083992E-05
0.122,3.120778E-05
0.123,3.145302E-05
0.124,3.185153E-05
0.125,3.215808E-05
0.126,3.252594E-05
0.127,3.289379E-05
0.128,3.320034E-05
0.129,3.362951E-05
0.13,3.402802E-05
0.131,3.436523E-05
0.132,3.48557E-05
0.133,3.528487E-05
0.134,3.574469E-05
0.135,3.626582E-05
0.136,3.669499E-05
0.137,3.715482E-05
0.138,3.76453E-05
0.139,3.80438E-05
0.14,3.856494E-05
0.141,3.908607E-05
0.142,3.96072E-05
0.143,4.018964E-05
0.144,4.068012E-05
0.145,4.11706E-05
0.146,4.17837E-05
0.147,4.236614E-05
0.148,4.297923E-05
0.149,4.359233E-05
0.15,4.420543E-05
0.151,4.487983E-05
0.152,4.558489E-05
0.153,4.622864E-05
0.154,4.693371E-05
0.155,4.757746E-05
0.156,4.843579E-05
0.157,4.904889E-05
0.158,4.975395E-05
0.159,5.064294E-05
0.16,5.140931E-05
0.161,5.220633E-05
0.162,5.312598E-05
0.163,5.38617E-05
0.164,5.481199E-05
0.165,5.57623E-05
0.166,5.668194E-05
0.167,5.769355E-05
0.168,5.86745E-05
0.169,5.968611E-05
0.17,6.072838E-05
0.171,6.170933E-05
0.172,6.290487E-05
0.173,6.400844E-05
0.174,6.514267E-05
0.175,6.639952E-05
0.176,6.75644E-05
0.177,6.885191E-05
0.178,7.010875E-05
0.179,7.13656E-05
0.18,7.277572E-05
0.181,7.415519E-05
0.182,7.553466E-05
0.183,7.712871E-05
0.184,7.856948E-05
0.185,8.001026E-05
0.186,8.169628E-05
0.187,8.322902E-05
0.188,8.494569E-05
0.189,8.657039E-05
0.19,8.831772E-05
0.191,9.018766E-05
0.192,9.19963E-05
0.193,9.383559E-05
0.194,9.576684E-05
0.195,9.76981E-05
0.196,9.981328E-05
0.197,0.0001017752
0.198,0.0001039823
0.199,0.0001061895
0.2,0.000108274
0.201,0.0001105731
0.202,0.0001129642
0.203,0.0001152327
0.204,0.0001177157
0.205,0.000120352
0.206,0.0001227431
0.207,0.000125502
0.208,0.000128169
0.209,0.000130836
0.21,0.0001336868
0.211,0.0001365378
0.212,0.0001395419
0.213,0.0001425154
0.214,0.0001455503
0.215,0.0001487384
0.216,0.0001518958
0.217,0.0001552066
0.218,0.0001585786
0.219,0.0001619813
0.22,0.0001655985
0.221,0.0001690319
0.222,0.0001726185
0.223,0.0001764197
0.224,0.0001801596
0.225,0.0001840221
0.226,0.0001879765
0.227,0.0001918084
0.228,0.0001960388
0.229,0.0002000852
0.23,0.000204101
0.231,0.0002084846
0.232,0.0002127763
0.233,0.000217068
0.234,0.0002215436
0.235,0.0002259272
0.236,0.0002306481
0.237,0.0002351237
0.238,0.0002397832
0.239,0.0002446267
0.24,0.0002493475
0.241,0.0002542216
0.242,0.0002591571
0.243,0.0002640925
0.244,0.0002693958
0.245,0.0002742699
0.246,0.0002793893
0.247,0.0002847232
0.248,0.0002897506
0.249,0.0002950232
0.25,0.0003044141
0.251,0.0003093189
0.252,0.0003148368
0.253,0.0003203546
0.254,0.000325566
0.255,0.0003313904
0.256,0.0003372148
0.257,0.0003430392
0.258,0.0003488636
0.259,0.0003549946
0.26,0.0003614321
0.261,0.0003672565
0.262,0.000373694
0.263,0.0003804381
0.264,0.000386569
0.265,0.0003933131
0.266,0.0004003637
0.267,0.0004071078
0.268,0.0004147715
0.269,0.0004221287
0.27,0.0004294858
0.271,0.0004374561
0.272,0.0004454263
0.273,0.0004533966
0.274,0.0004619799
0.275,0.0004708698
0.276,0.0004800663
0.277,0.0004892627
0.278,0.0004987657
0.279,0.0005091884
0.28,0.0005193045
0.281,0.0005300336
0.282,0.0005416825
0.283,0.0005527182
0.284,0.0005655932
0.285,0.0005778552
0.286,0.0005907302
0.287,0.000605138
0.288,0.0006192392
0.289,0.00063426
0.29,0.0006508137
0.291,0.0006667541
0.292,0.000684534
0.293,0.0007026203
0.294,0.0007216263
0.295,0.0007421651
0.296,0.0007630104
0.297,0.0007850818
0.298,0.0008089925
0.299,0.0008329034
0.3,0.0008595731
0.301,0.0008871623
0.302,0.0009162845
0.303,0.0009469393
0.304,0.0009791269
0.305,0.001013767
0.306,0.001050553
0.307,0.001090097
0.308,0.001131481
0.309,0.001174091
0.31,0.001220074
0.311,0.001270041
0.312,0.001320928
0.313,0.00137672
0.314,0.001435577
0.315,0.001496887
0.316,0.001564021
0.317,0.001633301
0.318,0.001707179
0.319,0.001786881
0.32,0.001870569
0.321,0.001959162
0.322,0.002053579
0.323,0.002152287
0.324,0.00225866
0.325,0.00236871
0.326,0.002486731
0.327,0.002611496
0.328,0.002740553
0.329,0.002879113
0.33,0.003023497
0.331,0.003206612
0.332,0.003362951
0.333,0.003525421
0.334,0.003700154
0.335,0.003881018
0.336,0.004068012
0.337,0.004264203
0.338,0.004466525
0.339,0.004674978
0.34,0.004892627
0.341,0.005113342
0.342,0.005343253
0.343,0.005582361
0.344,0.005821468
0.345,0.006072837
0.346,0.006327272
0.347,0.006587839
0.348,0.006854536
0.349,0.007124298
0.35,0.007400192
0.351,0.007682216
0.352,0.007967305
0.353,0.008258527
0.354,0.008552813
0.355,0.008850165
0.356,0.009153648
0.357,0.00945713
0.358,0.009766744
0.359,0.01007942
0.36,0.01039517
0.361,0.01071398
0.362,0.01103585
0.363,0.01135773
0.364,0.01168574
0.365,0.01201068
0.366,0.01234481
0.367,0.01267895
0.368,0.01300696
0.369,0.01335029
0.37,0.0136875
0.371,0.0140247
0.372,0.01436803
0.373,0.01470524
0.374,0.01504857
0.375,0.01539497
0.376,0.01573524
0.377,0.01607857
0.378,0.01642804
0.379,0.01676831
0.38,0.01711471
0.381,0.01745804
0.382,0.01780137
0.383,0.01814471
0.384,0.01848498
0.385,0.01882831
0.386,0.01916551
0.387,0.01950885
0.388,0.01984605
0.389,0.02018019
0.39,0.02052046
0.391,0.02085153
0.392,0.02117647
0.393,0.02151061
0.394,0.02183248
0.395,0.02215129
0.396,0.02247624
0.397,0.02279198
0.398,0.02310159
0.399,0.02341427
0.4,0.02371469
0.401,0.02401511
0.402,0.02431553
0.403,0.02460674
0.404,0.0248949
0.405,0.02517386
0.406,0.02544975
0.407,0.02572565
0.408,0.02598928
0.409,0.02625597
0.41,0.02652267
0.411,0.02677098
0.412,0.02701315
0.413,0.02724613
0.414,0.0274791
0.415,0.02770288
0.416,0.02792053
0.417,0.02813818
0.418,0.02833744
0.419,0.02853056
0.42,0.02872675
0.421,0.02890149
0.422,0.02908235
0.423,0.02925402
0.424,0.02940729
0.425,0.02956363
0.426,0.02970464
0.427,0.02983646
0.428,0.02996827
0.429,0.03087058
0.43,0.03096254
0.431,0.03105451
0.432,0.03114647
0.433,0.03120778
0.434,0.03129975
0.435,0.03136105
0.436,0.03142237
0.437,0.03145302
0.438,0.03148368
0.439,0.03148368
0.44,0.03148368
0.441,0.03148368
0.442,0.03145302
0.443,0.03142237
0.444,0.03136105
0.445,0.03126909
0.446,0.03120778
0.447,0.03108516
0.448,0.03096254
0.449,0.03080927
0.45,0.03062534
0.451,0.03044141
0.452,0.03022683
0.453,0.02998159
0.454,0.02973635
0.455,0.02946045
0.456,0.02915391
0.457,0.0288167
0.458,0.0284795
0.459,0.02811164
0.46,0.02771313
0.461,0.02731462
0.462,0.02688545
0.463,0.02642563
0.464,0.0259658
0.465,0.02550598
0.466,0.02501551
0.467,0.02452503
0.468,0.02403455
0.469,0.02354407
0.47,0.02302294
0.471,0.02253246
0.472,0.02204199
0.473,0.02155151
0.474,0.02109169
0.475,0.02060121
0.476,0.02017204
0.477,0.01971222
0.478,0.01931371
0.479,0.0189152
0.48,0.01854734
0.481,0.01821013
0.482,0.01787293
0.483,0.01756638
0.484,0.01732115
0.485,0.01707591
0.486,0.01686132
0.487,0.01667739
0.488,0.01652412
0.489,0.0164015
0.49,0.01634019
0.491,0.01624822
0.492,0.01624822
0.493,0.01621757
0.494,0.01624822
0.495,0.01630954
0.496,0.01637085
0.497,0.01646281
0.498,0.01655477
0.499,0.01670805
0.5,0.01686132
0.501,0.01704525
0.502,0.01722918
0.503,0.01741311
0.504,0.01765835
0.505,0.01787293
0.506,0.01811817
0.507,0.01836341
0.508,0.0186393
0.509,0.0189152
0.51,0.01919109
0.511,0.01946698
0.512,0.01977353
0.513,0.02008008
0.514,0.02041728
0.515,0.02072383
0.516,0.02106103
0.517,0.02139824
0.518,0.02173544
0.519,0.0221033
0.52,0.02247116
0.521,0.02280836
0.522,0.02317622
0.523,0.02354407
0.524,0.02391193
0.525,0.02427979
0.526,0.02464765
0.527,0.02504616
0.528,0.02541402
0.529,0.02581253
0.53,0.02618039
0.531,0.0265789
0.532,0.02697741
0.533,0.02737593
0.534,0.02777444
0.535,0.02817295
0.536,0.02857147
0.537,0.02900063
0.538,0.02939915
0.539,0.02979766
0.54,0.03022683
0.541,0.03062534
0.542,0.03102385
0.543,0.03145302
0.544,0.03188219
0.545,0.0322807
0.546,0.03270987
0.547,0.03313904
0.548,0.03353755
0.549,0.03396672
0.55,0.03439588
0.551,0.03482505
0.552,0.03525422
0.553,0.03568339
0.554,0.03611255
0.555,0.03654172
0.556,0.03697089
0.557,0.03740006
0.558,0.03782922
0.559,0.03828905
0.56,0.03871821
0.561,0.03914738
0.562,0.03957655
0.563,0.04003637
0.564,0.04046554
0.565,0.04089471
0.566,0.04135453
0.567,0.04181435
0.568,0.04221286
0.569,0.04270334
0.57,0.04313251
0.571,0.04356168
0.572,0.0440215
0.573,0.04448132
0.574,0.04491049
0.575,0.04537031
0.576,0.04583013
0.577,0.0462593
0.578,0.04671912
0.579,0.04717895
0.58,0.04763877
0.581,0.04809859
0.582,0.04852776
0.583,0.04898758
0.584,0.0494474
0.585,0.04990723
0.586,0.05033639
0.587,0.05079622
0.588,0.05125604
0.589,0.05171586
0.59,0.05217568
0.591,0.0526355
0.592,0.05306467
0.593,0.05355515
0.594,0.05401497
0.595,0.0544748
0.596,0.05493462
0.597,0.05539444
0.598,0.05585426
0.599,0.05631408
0.6,0.05677391
0.601,0.05723373
0.602,0.05772421
0.603,0.05818403
0.604,0.05864385
0.605,0.05910368
0.606,0.0595635
0.607,0.06002332
0.608,0.06048314
0.609,0.06094296
0.61,0.06143344
0.611,0.06189326
0.612,0.06238374
0.613,0.06284356
0.614,0.06330338
0.615,0.06376321
0.616,0.06422303
0.617,0.06471351
0.618,0.06517333
0.619,0.06566381
0.62,0.06612363
0.621,0.06658345
0.622,0.06704327
0.623,0.06753375
0.624,0.06796291
0.625,0.06845339
0.626,0.06894387
0.627,0.0694037
0.628,0.06989417
0.629,0.07035399
0.63,0.07081382
0.631,0.07130429
0.632,0.07176412
0.633,0.07222394
0.634,0.07271441
0.635,0.07317424
0.636,0.07363406
0.637,0.07412454
0.638,0.07458436
0.639,0.07504418
0.64,0.07553466
0.641,0.07602514
0.642,0.07648496
0.643,0.07694478
0.644,0.07743526
0.645,0.07792573
0.646,0.07838555
0.647,0.07887604
0.648,0.07933586
0.649,0.07982634
0.65,0.08031681
0.651,0.08077663
0.652,0.08126711
0.653,0.08172693
0.654,0.08221742
0.655,0.08270789
0.656,0.08316771
0.657,0.08365819
0.658,0.08411801
0.659,0.08460849
0.66,0.08509897
0.661,0.08558945
0.662,0.08604927
0.663,0.08653974
0.664,0.08699957
0.665,0.08749004
0.666,0.08798052
0.667,0.08844034
0.668,0.08890016
0.669,0.08939064
0.67,0.08985046
0.671,0.09031029
0.672,0.09080076
0.673,0.09126058
0.674,0.09168976
0.675,0.09218023
0.676,0.09264006
0.677,0.09309988
0.678,0.0935597
0.679,0.09401952
0.68,0.09447934
0.681,0.09496982
0.682,0.09542964
0.683,0.09588946
0.684,0.09637994
0.685,0.09680911
0.686,0.09729959
0.687,0.09775941
0.688,0.09821923
0.689,0.09870971
0.69,0.09920018
0.691,0.09962936
0.692,0.1001198
0.693,0.1006103
0.694,0.1011008
0.695,0.1015606
0.696,0.1020817
0.697,0.1025416
0.698,0.103032
0.699,0.1035225
0.7,0.1036758
0.6990001,0.103216
0.6980001,0.1027561
0.6970001,0.1022657
0.6960001,0.1018058
0.6950001,0.101346
0.6940001,0.1008555
0.6930001,0.1004264
0.6920001,0.0999359
0.6910001,0.09947608
0.6900001,0.09904691
0.6890001,0.09855644
0.6880001,0.09812727
0.6870001,0.09763679
0.6860001,0.09717696
0.6850001,0.09671714
0.6840001,0.09625732
0.6830001,0.09582815
0.6820001,0.09533768
0.6810001,0.09487786
0.6800001,0.09444869
0.6790001,0.09395821
0.6780001,0.09346773
0.6770001,0.09303857
0.6760001,0.09257875
0.6750001,0.09208827
0.6740001,0.09159779
0.6730001,0.09113797
0.6720001,0.09067815
0.6710001,0.09018766
0.6700001,0.08972784
0.6690001,0.08926802
0.6680001,0.08877754
0.6670001,0.08831772
0.6660001,0.08785789
0.6650001,0.08736742
0.6640001,0.0869076
0.6630001,0.08644778
0.6620001,0.0859573
0.6610001,0.08552813
0.6600001,0.08503766
0.6590001,0.08457784
0.6580001,0.08408736
0.6570001,0.08362754
0.6560001,0.08316771
0.6550001,0.08270789
0.6540001,0.08221742
0.6530001,0.08175759
0.6520001,0.08129777
0.6510001,0.08083794
0.6500001,0.08034747
0.6490001,0.0799183
0.6480001,0.07942782
0.6470001,0.078968
0.6460001,0.07850818
0.6450001,0.0780177
0.6440001,0.07755788
0.6430001,0.07709806
0.6420001,0.07660758
0.6410001,0.07614776
0.6400001,0.07571859
0.6390001,0.07522812
0.6380001,0.07476829
0.6370001,0.07430847
0.6360001,0.07384864
0.6350001,0.07338882
0.6340001,0.07289835
0.6330001,0.07243852
0.6320001,0.0719787
0.6310001,0.07151888
0.6300001,0.07105906
0.6290001,0.07059924
0.6280001,0.07013941
0.6270001,0.06964894
0.6260001,0.06921976
0.6250001,0.06872929
0.6240001,0.06826947
0.6230001,0.06780964
0.6220001,0.06734982
0.6210001,0.06688999
0.6200001,0.06643017
0.6190001,0.06597035
0.6180001,0.06551053
0.6170001,0.06505071
0.6160001,0.06459089
0.6150001,0.06413107
0.6140001,0.06367125
0.6130001,0.06321142
0.6120001,0.0627516
0.6110001,0.06229177
0.6100001,0.06183195
0.6090001,0.06137213
0.6080001,0.06091231
0.6070001,0.06045249
0.6060001,0.06002332
0.6050001,0.0595635
0.6040001,0.05910368
0.6030001,0.05864385
0.6020001,0.05821468
0.6010001,0.05772421
0.6000001,0.05729504
0.5990001,0.05683522
0.5980001,0.05637539
0.5970001,0.05594623
0.5960001,0.05548641
0.5950001,0.05502658
0.5940001,0.05459742
0.5930001,0.05413759
0.5920001,0.05367777
0.5910001,0.05321795
0.5900001,0.05278878
0.5890001,0.05232896
0.5880001,0.05186913
0.5870001,0.05143997
0.5860001,0.05098015
0.5850001,0.05055097
0.5840001,0.05009115
0.5830001,0.04966199
0.5820001,0.04920216
0.5810001,0.048773
0.5800001,0.04831317
0.5790001,0.04788401
0.5780001,0.04742418
0.5770001,0.04699502
0.5760001,0.04656585
0.5750001,0.04610603
0.5740001,0.0456462
0.5730001,0.04521704
0.5720001,0.04478787
0.5710001,0.04432805
0.5700001,0.04389888
0.5690001,0.04346971
0.5680001,0.04304054
0.5670001,0.04258072
0.5660001,0.04215155
0.5650001,0.04172239
0.5640001,0.04129322
0.5630001,0.04083339
0.5620001,0.04040423
0.5610001,0.03997506
0.5600001,0.03954589
0.5590001,0.03911673
0.5580001,0.03868756
0.5570001,0.03825839
0.5560001,0.03782922
0.5550001,0.03740006
0.5540001,0.03694023
0.5530001,0.03654172
0.5520001,0.03611255
0.5510001,0.03568339
0.5500001,0.03525422
0.5490001,0.03482505
0.5480001,0.03439588
0.5470001,0.03399737
0.5460001,0.0335682
0.5450001,0.03313904
0.5440001,0.03270987
0.5430001,0.0322807
0.5420001,0.03188219
0.5410001,0.03145302
0.5400001,0.03102385
0.5390001,0.03062534
0.5380001,0.03019617
0.5370001,0.02979766
0.5360001,0.02936849
0.5350001,0.02896998
0.5340001,0.02854081
0.5330001,0.0281423
0.5320001,0.02771313
0.5310001,0.02731462
0.5300001,0.02691611
0.5290001,0.02651759
0.5280001,0.02608843
0.5270001,0.02568991
0.5260001,0.0252914
0.5250001,0.02489289
0.5240001,0.02449437
0.5230001,0.02409586
0.5220001,0.02369735
0.5210001,0.02329884
0.5200001,0.02290032
0.5190001,0.02250181
0.5180001,0.0221033
0.5170001,0.02173544
0.5160001,0.02133693
0.5150001,0.02093842
0.5140001,0.02057056
0.5130001,0.02017204
0.5120001,0.01977353
0.5110001,0.01940567
0.5100001,0.01903781
0.5090001,0.01866996
0.5080001,0.0183021
0.5070001,0.01793424
0.5060001,0.01753573
0.5050001,0.01716787
0.5040001,0.01680001
0.5030001,0.01643215
0.5020001,0.01609495
0.5010001,0.01572709
0.5000001,0.01535923
0.4990001,0.01499138
0.4980001,0.01465417
0.4970001,0.01428632
0.4960001,0.01394911
0.4950001,0.01358126
0.4940001,0.01324405
0.4930001,0.01239999
0.4920001,0.01206585
0.4910001,0.01173478
0.4900001,0.01140065
0.4890001,0.01107571
0.4880001,0.01075383
0.4870001,0.01042889
0.4860001,0.01011621
0.4850001,0.009797399
0.4840001,0.009484719
0.4830001,0.009181237
0.4820001,0.008871623
0.4810001,0.008568141
0.4800001,0.008273854
0.4790001,0.007976502
0.4780001,0.007685281
0.4770001,0.007397126
0.4760001,0.007115101
0.4750001,0.006833077
0.4740001,0.006554118
0.4730001,0.006281291
0.4720001,0.006014594
0.4710001,0.005747896
0.4700001,0.005493461
0.4690001,0.005232896
0.4680001,0.004981526
0.4670001,0.004739353
0.4660001,0.004494114
0.4650001,0.004258072
0.4640001,0.004028161
0.4630001,0.003795184
0.4620001,0.003574469
0.4610001,0.003353755
0.4600001,0.003136105
0.4590001,0.002930718
0.4580001,0.002725331
0.4570001,0.002526074
0.4560001,0.002336015
0.4550001,0.002142889
0.4540001,0.00195896
0.4530001,0.001784228
0.4520001,0.00160643
0.4510001,0.001443959
0.4500001,0.001275357
0.4490001,0.00108366
0.4480001,0.0009306922
0.4470001,0.0007792574
0.4460001,0.0006385517
0.4450001,0.0004999919
0.4440001,0.0003614321
0.4430001,0.000236667
0.4420001,0.0001094494
0.4410001,-1.3783E-05
0.4400001,-0.0001318146
0.4390001,-0.0002451761
0.4380001,-0.0003511805
0.4370001,-0.0004542929
0.4360001,-0.0005545341
0.4350001,-0.0006468052
0.4340001,-0.000740609
0.4330001,-0.0008279752
0.4320001,-0.0009119695
0.4310001,-0.0009965767
0.4300001,-0.001071375
0.4290001,-0.001148012
0.4280001,-0.00122281
0.4270001,-0.001287798
0.4260001,-0.001357691
0.4250001,-0.001421146
0.4240001,-0.001480003
0.4230001,-0.001544685
0.4220001,-0.001600783
0.4210001,-0.001654123
0.4200001,-0.001709915
0.4190001,-0.001757736
0.4180001,-0.001808317
0.4170001,-0.001857058
0.4160001,-0.001902734
0.4150001,-0.001949635
0.4140001,-0.001991326
0.4130001,-0.002033629
0.4120001,-0.00207624
0.4110001,-0.002114865
0.4100001,-0.00216146
0.4090001,-0.00220499
0.4080001,-0.002237484
0.4070001,-0.002276416
0.4060001,-0.002308603
0.4050001,-0.002343243
0.4040001,-0.002380029
0.4030001,-0.002412217
0.4020001,-0.00244655
0.4010001,-0.002480577
0.4000001,-0.002511232
0.3990001,-0.002546791
0.3980001,-0.002577753
0.3970001,-0.00261086
0.3960001,-0.0026455
0.3950001,-0.002674929
0.3940001,-0.002708649
0.3930001,-0.002739917
0.3920001,-0.002769958
0.3910001,-0.002804905
0.3900001,-0.002836173
0.3890001,-0.00286836
0.3880001,-0.002901774
0.3870001,-0.002930896
0.3860001,-0.002965536
0.3850001,-0.002997417
0.3840001,-0.002991794
0.3830001,-0.00302858
0.3820001,-0.003053104
0.3810001,-0.003086824
0.3800001,-0.00312361
0.3790001,-0.003154265
0.3780001,-0.003187985
0.3770001,-0.003224771
0.3760001,-0.003255426
0.3750001,-0.003292212
0.3740001,-0.003328997
0.3730001,-0.003362718
0.3720001,-0.003399503
0.3710001,-0.003439354
0.3700001,-0.003473075
0.3690001,-0.003509861
0.3680001,-0.003546647
0.3670001,-0.003586498
0.3660001,-0.003620218
0.3650001,-0.003660069
0.3640001,-0.003702986
0.3630001,-0.003736707
0.3620001,-0.003779623
0.3610001,-0.003819474
0.3600001,-0.003859326
0.3590001,-0.003902242
0.3580001,-0.003945159
0.3570001,-0.003985011
0.3560001,-0.004030993
0.3550001,-0.004070844
