EXPID. 0793
[电化学]: CV : 0 >> 0.7 >> 0 >> 0(V) @ 0.01(V/s) X 10(Seg)
起始电位 (V),0
上限电位 (V),0.7
下限电位 (V),0
终止电位 (V),0
扫速 (V/s),0.01
电解液 信息:
KOH,1
0.001,-9.015467E-06
0.002,-8.862193E-06
0.003,-8.794753E-06
0.004,-8.699722E-06
0.005,-8.598562E-06
0.006,-8.494335E-06
0.007,-8.322669E-06
0.008,-8.196984E-06
0.009,-8.040643E-06
0.01,-7.954811E-06
0.011,-7.85365E-06
0.012,-7.767816E-06
0.013,-7.718769E-06
0.014,-7.596149E-06
0.015,-7.537905E-06
0.016,-7.473529E-06
0.017,-7.455137E-06
0.018,-7.35091E-06
0.019,-7.243618E-06
0.02,-7.065821E-06
0.021,-6.97079E-06
0.022,-6.838975E-06
0.023,-6.728617E-06
0.024,-6.636653E-06
0.025,-6.615195E-06
0.026,-6.474183E-06
0.027,-6.443528E-06
0.028,-6.357694E-06
0.029,-6.330105E-06
0.03,-6.256533E-06
0.031,-6.090997E-06
0.032,-5.949985E-06
0.033,-5.821234E-06
0.034,-5.69555E-06
0.035,-5.674091E-06
0.036,-5.594389E-06
0.037,-5.533079E-06
0.038,-5.438049E-06
0.039,-5.385936E-06
0.04,-5.238793E-06
0.041,-5.067126E-06
0.042,-4.975162E-06
0.043,-4.913852E-06
0.044,-4.797364E-06
0.045,-4.803494E-06
0.046,-4.751381E-06
0.047,-4.659416E-06
0.048,-4.469357E-06
0.049,-4.303821E-06
0.05,-4.239445E-06
0.051,-4.144416E-06
0.052,-4.104565E-06
0.053,-3.988076E-06
0.054,-4.015665E-06
0.055,-3.834802E-06
0.056,-3.586498E-06
0.057,-3.546646E-06
0.058,-3.451617E-06
0.059,-3.445486E-06
0.06,-3.344325E-06
0.061,-3.264622E-06
0.062,-3.068431E-06
0.063,-3.000991E-06
0.064,-2.902895E-06
0.065,-2.87224E-06
0.066,-2.826258E-06
0.067,-2.68218E-06
0.068,-2.42468E-06
0.069,-2.357239E-06
0.07,-2.323519E-06
0.071,-2.213162E-06
0.072,-2.240751E-06
0.073,-2.130394E-06
0.074,-1.875959E-06
0.075,-1.765601E-06
0.076,-1.673637E-06
0.077,-1.581672E-06
0.078,-1.578607E-06
0.079,-1.517297E-06
0.08,-1.34563E-06
0.081,-1.15557E-06
0.082,-1.066671E-06
0.083,-9.747067E-07
0.084,-8.766112E-07
0.085,-8.551529E-07
0.086,-7.938432E-07
0.087,-6.344382E-07
0.088,-4.229198E-07
0.089,-3.156279E-07
0.09,-2.14467E-07
0.091,-1.562229E-07
0.092,-7.652033E-08
0.093,1.544415E-08
0.094,8.595024E-08
0.095,2.300279E-07
0.096,4.599391E-07
0.097,5.549691E-07
0.098,6.683919E-07
0.099,7.021122E-07
0.1,8.461899E-07
0.101,8.553864E-07
0.102,9.626782E-07
0.103,1.106756E-06
0.104,1.250834E-06
0.105,1.410239E-06
0.106,1.572709E-06
0.107,1.588037E-06
0.108,1.710656E-06
0.109,1.817948E-06
0.11,1.827144E-06
0.111,1.931371E-06
0.112,2.124496E-06
0.113,2.228722E-06
0.114,2.470896E-06
0.115,2.575122E-06
0.116,2.679348E-06
0.117,2.795837E-06
0.118,2.860212E-06
0.119,2.952177E-06
0.12,3.041075E-06
0.121,3.047206E-06
0.122,3.182088E-06
0.123,3.335362E-06
0.124,3.559142E-06
0.125,3.73694E-06
0.126,3.801315E-06
0.127,3.920869E-06
0.128,4.018964E-06
0.129,4.077208E-06
0.13,4.184501E-06
0.131,4.300989E-06
0.132,4.350037E-06
0.133,4.503311E-06
0.134,4.632061E-06
0.135,4.803728E-06
0.136,4.963133E-06
0.137,5.070424E-06
0.138,5.171586E-06
0.139,5.254354E-06
0.14,5.416824E-06
0.141,5.502658E-06
0.142,5.637539E-06
0.143,5.711111E-06
0.144,5.766289E-06
0.145,5.891975E-06
0.146,5.983939E-06
0.147,6.075903E-06
0.148,6.226112E-06
0.149,6.287421E-06
0.15,6.49894E-06
0.151,6.658345E-06
0.152,6.811619E-06
0.153,6.949566E-06
0.154,7.056858E-06
0.155,7.130429E-06
0.156,7.302096E-06
0.157,7.397126E-06
0.158,7.452305E-06
0.159,7.605579E-06
0.16,7.722067E-06
0.161,7.771115E-06
0.162,7.847751E-06
0.163,7.96424E-06
0.164,8.105253E-06
0.165,8.218675E-06
0.166,8.37195E-06
0.167,8.543616E-06
0.168,8.684629E-06
0.169,8.822575E-06
0.17,8.935998E-06
0.171,9.003439E-06
0.172,9.156714E-06
0.173,9.248677E-06
0.174,9.331446E-06
0.175,9.460196E-06
0.176,9.582815E-06
0.177,9.653321E-06
0.178,9.745286E-06
0.179,9.83725E-06
0.18,9.944541E-06
0.181,1.007942E-05
0.182,1.02327E-05
0.183,1.042276E-05
0.184,1.054231E-05
0.185,1.067719E-05
0.186,1.082127E-05
0.187,1.093776E-05
0.188,1.10849E-05
0.189,1.11738E-05
0.19,1.121978E-05
0.191,1.136999E-05
0.192,1.154779E-05
0.193,1.15999E-05
0.194,1.172252E-05
0.195,1.17777E-05
0.196,1.190338E-05
0.197,1.201068E-05
0.198,1.211797E-05
0.199,1.227737E-05
0.2,1.241839E-05
0.201,1.254407E-05
0.202,1.2728E-05
0.203,1.285675E-05
0.204,1.302842E-05
0.205,1.314491E-05
0.206,1.327059E-05
0.207,1.339321E-05
0.208,1.348517E-05
0.209,1.359553E-05
0.21,1.374267E-05
0.211,1.381931E-05
0.212,1.392967E-05
0.213,1.402776E-05
0.214,1.41136E-05
0.215,1.419943E-05
0.216,1.435577E-05
0.217,1.454276E-05
0.218,1.473283E-05
0.219,1.48769E-05
0.22,1.503324E-05
0.221,1.514666E-05
0.222,1.525396E-05
0.223,1.535205E-05
0.224,1.549613E-05
0.225,1.559116E-05
0.226,1.572911E-05
0.227,1.578122E-05
0.228,1.595902E-05
0.229,1.606938E-05
0.23,1.614908E-05
0.231,1.633914E-05
0.232,1.648322E-05
0.233,1.6707E-05
0.234,1.690012E-05
0.235,1.696143E-05
0.236,1.710551E-05
0.237,1.728331E-05
0.238,1.735688E-05
0.239,1.748563E-05
0.24,1.755307E-05
0.241,1.768795E-05
0.242,1.777378E-05
0.243,1.788414E-05
0.244,1.814164E-05
0.245,1.834396E-05
0.246,1.850643E-05
0.247,1.863518E-05
0.248,1.877313E-05
0.249,1.889268E-05
0.25,1.903983E-05
0.251,1.915938E-05
0.252,1.923602E-05
0.253,1.941075E-05
0.254,1.958855E-05
0.255,1.986444E-05
0.256,2.002998E-05
0.257,2.013421E-05
0.258,2.03212E-05
0.259,2.037332E-05
0.26,2.054498E-05
0.261,2.064001E-05
0.262,2.071665E-05
0.263,2.092204E-05
0.264,2.114888E-05
0.265,2.130522E-05
0.266,2.159031E-05
0.267,2.168534E-05
0.268,2.18662E-05
0.269,2.203787E-05
0.27,2.216969E-05
0.271,2.232296E-05
0.272,2.245171E-05
0.273,2.254981E-05
0.274,2.27368E-05
0.275,2.290234E-05
0.276,2.309546E-05
0.277,2.333151E-05
0.278,2.353383E-05
0.279,2.370856E-05
0.28,2.389555E-05
0.281,2.408255E-05
0.282,2.432166E-05
0.283,2.444427E-05
0.284,2.464966E-05
0.285,2.484279E-05
0.286,2.500219E-05
0.287,2.556729E-05
0.288,2.572057E-05
0.289,2.593515E-05
0.29,2.602712E-05
0.291,2.618039E-05
0.292,2.639497E-05
0.293,2.65789E-05
0.294,2.679348E-05
0.295,2.703872E-05
0.296,2.722265E-05
0.297,2.740658E-05
0.298,2.774378E-05
0.299,2.789706E-05
0.3,2.811164E-05
0.301,2.835688E-05
0.302,2.854081E-05
0.303,2.872474E-05
0.304,2.890867E-05
0.305,2.912325E-05
0.306,2.936849E-05
0.307,2.958307E-05
0.308,2.970569E-05
0.309,2.992028E-05
0.31,3.016552E-05
0.311,3.044141E-05
0.312,3.074796E-05
0.313,3.102385E-05
0.314,3.126909E-05
0.315,3.148367E-05
0.316,3.16676E-05
0.317,3.191284E-05
0.318,3.215808E-05
0.319,3.237266E-05
0.32,3.258725E-05
0.321,3.280183E-05
0.322,3.304707E-05
0.323,3.332296E-05
0.324,3.362951E-05
0.325,3.39054E-05
0.326,3.421195E-05
0.327,3.45185E-05
0.328,3.47944E-05
0.329,3.507029E-05
0.33,3.534618E-05
0.331,3.559142E-05
0.332,3.583666E-05
0.333,3.617386E-05
0.334,3.64191E-05
0.335,3.669499E-05
0.336,3.700154E-05
0.337,3.727743E-05
0.338,3.761464E-05
0.339,3.789053E-05
0.34,3.825839E-05
0.341,3.850363E-05
0.342,3.881018E-05
0.343,3.914738E-05
0.344,3.951524E-05
0.345,3.982179E-05
0.346,4.015899E-05
0.347,4.046554E-05
0.348,4.080274E-05
0.349,4.120125E-05
0.35,4.15078E-05
0.351,4.190631E-05
0.352,4.233548E-05
0.353,4.273399E-05
0.354,4.316316E-05
0.355,4.353102E-05
0.356,4.396019E-05
0.357,4.448132E-05
0.358,4.491049E-05
0.359,4.549293E-05
0.36,4.601406E-05
0.361,4.65965E-05
0.362,4.724025E-05
0.363,4.782269E-05
0.364,4.855841E-05
0.365,4.932478E-05
0.366,5.018312E-05
0.367,5.119473E-05
0.368,5.220633E-05
0.369,5.330991E-05
0.37,5.468938E-05
0.371,5.613015E-05
0.372,5.775486E-05
0.373,5.950218E-05
0.374,6.140278E-05
0.375,6.357927E-05
0.376,6.590904E-05
0.377,6.85147E-05
0.378,7.145757E-05
0.379,7.452305E-05
0.38,7.807901E-05
0.381,8.172693E-05
0.382,8.580402E-05
0.383,9.027963E-05
0.384,9.503113E-05
0.385,0.0001002731
0.386,0.0001060055
0.387,0.0001120752
0.388,0.0001188499
0.389,0.0001261151
0.39,0.0001339321
0.391,0.0001424541
0.392,0.000151528
0.393,0.0001614601
0.394,0.00017222
0.395,0.0001837768
0.396,0.0001964679
0.397,0.00021014
0.398,0.0002249769
0.399,0.0002411933
0.4,0.0002586053
0.401,0.0002780404
0.402,0.0002988551
0.403,0.0003252594
0.404,0.0003507029
0.405,0.0003776792
0.406,0.0004077209
0.407,0.0004408281
0.408,0.0004760812
0.409,0.0005159324
0.41,0.0005600754
0.411,0.0006063642
0.412,0.0006572512
0.413,0.0007118168
0.414,0.000770674
0.415,0.0008344361
0.416,0.0009024898
0.417,0.0009760614
0.418,0.001053618
0.419,0.001136079
0.42,0.001223752
0.421,0.001314491
0.422,0.00141136
0.423,0.001512521
0.424,0.001615828
0.425,0.001725572
0.426,0.001836849
0.427,0.001951191
0.428,0.002070745
0.429,0.002190912
0.43,0.002315064
0.431,0.002441975
0.432,0.00256858
0.433,0.002699476
0.434,0.002831905
0.435,0.002964027
0.436,0.003129974
0.437,0.003267921
0.438,0.003402802
0.439,0.003540749
0.44,0.003678696
0.441,0.003819708
0.442,0.003963786
0.443,0.004104798
0.444,0.004248876
0.445,0.004389888
0.446,0.004533966
0.447,0.004681109
0.448,0.004828252
0.449,0.00497846
0.45,0.005125604
0.451,0.005275812
0.452,0.005432152
0.453,0.005582361
0.454,0.0057387
0.455,0.005898105
0.456,0.00605751
0.457,0.006219981
0.458,0.006388582
0.459,0.006554118
0.46,0.006728851
0.461,0.006906649
0.462,0.007084447
0.463,0.007271441
0.464,0.007458436
0.465,0.007651561
0.466,0.007850817
0.467,0.008053139
0.468,0.008261592
0.469,0.00847311
0.47,0.00869689
0.471,0.008920671
0.472,0.009150582
0.473,0.009392755
0.474,0.009634929
0.475,0.009889363
0.476,0.0101438
0.477,0.01041049
0.478,0.01068332
0.479,0.01096228
0.48,0.01124737
0.481,0.01154166
0.482,0.01183901
0.483,0.01214556
0.484,0.0124613
0.485,0.01277705
0.486,0.01310812
0.487,0.01343919
0.488,0.0137764
0.489,0.01412893
0.49,0.01447533
0.491,0.01483092
0.492,0.01519878
0.493,0.01556664
0.494,0.01593756
0.495,0.01631768
0.496,0.0166978
0.497,0.01708711
0.498,0.01747337
0.499,0.01786881
0.5,0.01827039
0.501,0.01866584
0.502,0.01907048
0.503,0.01947513
0.504,0.01987671
0.505,0.02029055
0.506,0.02070132
0.507,0.02110903
0.508,0.02152594
0.509,0.02193365
0.51,0.02234749
0.511,0.02276439
0.512,0.0231813
0.513,0.0235982
0.514,0.02401204
0.515,0.02442282
0.516,0.02483666
0.517,0.02525356
0.518,0.02566434
0.519,0.02607205
0.52,0.02648589
0.521,0.0268936
0.522,0.02729824
0.523,0.02771208
0.524,0.02811366
0.525,0.02852137
0.526,0.02892601
0.527,0.02933065
0.528,0.0297353
0.529,0.03013075
0.53,0.0313304
0.531,0.03169826
0.532,0.03209677
0.533,0.03249529
0.534,0.03292445
0.535,0.03332296
0.536,0.03372148
0.537,0.03415065
0.538,0.03454916
0.539,0.03494767
0.54,0.03537684
0.541,0.03577535
0.542,0.03617386
0.543,0.03660303
0.544,0.03700154
0.545,0.03743071
0.546,0.03782922
0.547,0.03825839
0.548,0.03868756
0.549,0.03908607
0.55,0.03951524
0.551,0.03994441
0.552,0.04034292
0.553,0.04077209
0.554,0.0411706
0.555,0.04159977
0.556,0.04202893
0.557,0.0424581
0.558,0.04285662
0.559,0.04328578
0.56,0.04371495
0.561,0.04414412
0.562,0.04454263
0.563,0.0449718
0.564,0.04540097
0.565,0.04583013
0.566,0.0462593
0.567,0.04671912
0.568,0.04711764
0.569,0.0475468
0.57,0.04797597
0.571,0.04840514
0.572,0.04883431
0.573,0.04926347
0.574,0.04969264
0.575,0.05009115
0.576,0.05052032
0.577,0.05094949
0.578,0.05137866
0.579,0.05180782
0.58,0.05220634
0.581,0.0526355
0.582,0.05306467
0.583,0.05349384
0.584,0.05392301
0.585,0.05435218
0.586,0.05478134
0.587,0.05521051
0.588,0.05563968
0.589,0.05603819
0.59,0.05646735
0.591,0.05689653
0.592,0.05729504
0.593,0.05778552
0.594,0.05818403
0.595,0.05861319
0.596,0.05904236
0.597,0.05947153
0.598,0.0599007
0.599,0.06036052
0.6,0.06075903
0.601,0.0611882
0.602,0.06164802
0.603,0.06207719
0.604,0.06250636
0.605,0.06293552
0.606,0.06336469
0.607,0.06379386
0.608,0.06422303
0.609,0.06468286
0.61,0.06511202
0.611,0.06554119
0.612,0.06597035
0.613,0.06639952
0.614,0.06685934
0.615,0.06731917
0.616,0.06771768
0.617,0.06817751
0.618,0.06863733
0.619,0.06906649
0.62,0.06952631
0.621,0.06998613
0.622,0.0704153
0.623,0.07087513
0.624,0.07130429
0.625,0.07176412
0.626,0.07222394
0.627,0.07265311
0.628,0.07308228
0.629,0.0735421
0.63,0.07400192
0.631,0.07446174
0.632,0.07492156
0.633,0.07535073
0.634,0.0757799
0.635,0.07627037
0.636,0.0767302
0.637,0.07715937
0.638,0.07761919
0.639,0.07807901
0.64,0.07853883
0.641,0.07899866
0.642,0.07945848
0.643,0.07988765
0.644,0.08037812
0.645,0.08080729
0.646,0.08126711
0.647,0.08172693
0.648,0.08218676
0.649,0.08264658
0.65,0.08307575
0.651,0.08356623
0.652,0.08399539
0.653,0.08448587
0.654,0.08494569
0.655,0.08537485
0.656,0.08586534
0.657,0.08635581
0.658,0.08678498
0.659,0.08727546
0.66,0.08773528
0.661,0.08816445
0.662,0.08865493
0.663,0.08911475
0.664,0.08957457
0.665,0.09006505
0.666,0.09052487
0.667,0.09101535
0.668,0.09147517
0.669,0.09193499
0.67,0.09242547
0.671,0.09288529
0.672,0.09334511
0.673,0.09383559
0.674,0.09429541
0.675,0.09472458
0.676,0.09521506
0.677,0.09564423
0.678,0.0960734
0.679,0.09656387
0.68,0.09699304
0.681,0.0974222
0.682,0.09791268
0.683,0.09834184
0.684,0.09880167
0.685,0.09926149
0.686,0.09969067
0.687,0.1001505
0.688,0.1006103
0.689,0.1010395
0.69,0.1014993
0.691,0.1019898
0.692,0.1024189
0.693,0.1028788
0.694,0.1033692
0.695,0.1037984
0.696,0.1042889
0.697,0.1047487
0.698,0.1052085
0.699,0.105699
0.7,0.1058216
0.6990001,0.1053311
0.6980001,0.104902
0.6970001,0.1044115
0.6960001,0.103921
0.6950001,0.1035225
0.6940001,0.103032
0.6930001,0.1025416
0.6920001,0.1021124
0.6910001,0.1016219
0.6900001,0.1011314
0.6890001,0.1007023
0.6880001,0.1002118
0.6870001,0.09975197
0.6860001,0.0993228
0.6850001,0.09883233
0.6840001,0.09837251
0.6830001,0.09794334
0.6820001,0.09745286
0.6810001,0.09702369
0.6800001,0.09656387
0.6790001,0.09610405
0.6780001,0.09561357
0.6770001,0.09518441
0.6760001,0.09472458
0.6750001,0.0942341
0.6740001,0.09380494
0.6730001,0.09331446
0.6720001,0.09285464
0.6710001,0.09239481
0.6700001,0.09193499
0.6690001,0.09144451
0.6680001,0.09101535
0.6670001,0.09052487
0.6660001,0.0900957
0.6650001,0.08960523
0.6640001,0.08911475
0.6630001,0.08865493
0.6620001,0.08819511
0.6610001,0.08773528
0.6600001,0.08727546
0.6590001,0.08681564
0.6580001,0.08632516
0.6570001,0.08586534
0.6560001,0.08540551
0.6550001,0.08491503
0.6540001,0.08442456
0.6530001,0.08396474
0.6520001,0.08350492
0.6510001,0.08304509
0.6500001,0.08258527
0.6490001,0.08212545
0.6480001,0.08163497
0.6470001,0.08117515
0.6460001,0.08074598
0.6450001,0.0802555
0.6440001,0.07979568
0.6430001,0.07933586
0.6420001,0.07887604
0.6410001,0.07841621
0.6400001,0.07795639
0.6390001,0.07746591
0.6380001,0.07703675
0.6370001,0.07654627
0.6360001,0.07608645
0.6350001,0.07562663
0.6340001,0.07516681
0.6330001,0.07470698
0.6320001,0.07424716
0.6310001,0.07378733
0.6300001,0.07329686
0.6290001,0.07283704
0.6280001,0.07240786
0.6270001,0.07191739
0.6260001,0.07148822
0.6250001,0.0710284
0.6240001,0.07053792
0.6230001,0.07010876
0.6220001,0.06964894
0.6210001,0.06915846
0.6200001,0.06869864
0.6190001,0.06826947
0.6180001,0.06777899
0.6170001,0.06731917
0.6160001,0.06688999
0.6150001,0.06639952
0.6140001,0.06597035
0.6130001,0.06551053
0.6120001,0.06505071
0.6110001,0.06462154
0.6100001,0.06416172
0.6090001,0.06367125
0.6080001,0.06324207
0.6070001,0.06278225
0.6060001,0.06232243
0.6050001,0.06189326
0.6040001,0.06143344
0.6030001,0.06097361
0.6020001,0.06051379
0.6010001,0.06005397
0.6000001,0.0596248
0.5990001,0.05916498
0.5980001,0.05870516
0.5970001,0.05824534
0.5960001,0.05781617
0.5950001,0.05735635
0.5940001,0.05689653
0.5930001,0.05646735
0.5920001,0.05600753
0.5910001,0.05557837
0.5900001,0.05511854
0.5890001,0.05468938
0.5880001,0.05422956
0.5870001,0.05376973
0.5860001,0.05330991
0.5850001,0.05288074
0.5840001,0.05245158
0.5830001,0.05199176
0.5820001,0.05153193
0.5810001,0.05110276
0.5800001,0.05067359
0.5790001,0.05021377
0.5780001,0.0497846
0.5770001,0.04935544
0.5760001,0.04889562
0.5750001,0.04846645
0.5740001,0.04803728
0.5730001,0.04757746
0.5720001,0.04714829
0.5710001,0.04671912
0.5700001,0.0462593
0.5690001,0.04583013
0.5680001,0.04540097
0.5670001,0.04494114
0.5660001,0.04451197
0.5650001,0.04408281
0.5640001,0.04365364
0.5630001,0.04322447
0.5620001,0.0427953
0.5610001,0.04236614
0.5600001,0.04193697
0.5590001,0.04147715
0.5580001,0.04104798
0.5570001,0.04064947
0.5560001,0.04018965
0.5550001,0.03976048
0.5540001,0.03933131
0.5530001,0.0389328
0.5520001,0.03847298
0.5510001,0.03807446
0.5500001,0.0376453
0.5490001,0.03721613
0.5480001,0.03678696
0.5470001,0.03635779
0.5460001,0.03592863
0.5450001,0.03553011
0.5440001,0.03510094
0.5430001,0.03467178
0.5420001,0.03424261
0.5410001,0.03384409
0.5400001,0.03341493
0.5390001,0.03301642
0.5380001,0.03258725
0.5370001,0.03218874
0.5360001,0.03175957
0.5350001,0.03136105
0.5340001,0.03093189
0.5330001,0.03053337
0.5320001,0.03010421
0.5310001,0.02970569
0.5300001,0.02927653
0.5290001,0.02887801
0.5280001,0.0284795
0.5270001,0.02808099
0.5260001,0.02765182
0.5250001,0.02725331
0.5240001,0.0268548
0.5230001,0.02645628
0.5220001,0.02605777
0.5210001,0.02565926
0.5200001,0.02526074
0.5190001,0.02486223
0.5180001,0.02446372
0.5170001,0.02406521
0.5160001,0.02369735
0.5150001,0.02329884
0.5140001,0.02290032
0.5130001,0.02250181
0.5120001,0.0221033
0.5110001,0.02170478
0.5100001,0.02133693
0.5090001,0.02093842
0.5080001,0.02057056
0.5070001,0.0202027
0.5060001,0.01980419
0.5050001,0.01943633
0.5040001,0.01906847
0.5030001,0.01866996
0.5020001,0.01833276
0.5010001,0.0179649
0.5000001,0.01756638
0.4990001,0.01722918
0.4980001,0.01686132
0.4970001,0.01649346
0.4960001,0.01612561
0.4950001,0.0157884
0.4940001,0.01542055
0.4930001,0.01505269
0.4920001,0.01471548
0.4910001,0.01434763
0.4900001,0.01397977
0.4890001,0.01364256
0.4880001,0.01330536
0.4870001,0.01246743
0.4860001,0.01213943
0.4850001,0.01180835
0.4840001,0.01147422
0.4830001,0.01115541
0.4820001,0.0108274
0.4810001,0.01050552
0.4800001,0.01018672
0.4790001,0.009867905
0.4780001,0.009558291
0.4770001,0.009248678
0.4760001,0.008939064
0.4750001,0.008638646
0.4740001,0.008332099
0.4730001,0.008034746
0.4720001,0.007743525
0.4710001,0.007446174
0.4700001,0.007161084
0.4690001,0.00687906
0.4680001,0.00659397
0.4670001,0.006318076
0.4660001,0.006042183
0.4650001,0.005772421
0.4640001,0.005505723
0.4630001,0.005242092
0.4620001,0.004984592
0.4610001,0.004727091
0.4600001,0.004472656
0.4590001,0.004227417
0.4580001,0.003985244
0.4570001,0.003743071
0.4560001,0.003510094
0.4550001,0.003277118
0.4540001,0.003050272
0.4530001,0.002829557
0.4520001,0.002605777
0.4510001,0.002394259
0.4500001,0.00218274
0.4490001,0.001974287
0.4480001,0.001775031
0.4470001,0.001575775
0.4460001,0.001382649
0.4450001,0.001192589
0.4440001,0.0009714631
0.4430001,0.000792439
0.4420001,0.0006121886
0.4410001,0.0004371495
0.4400001,0.000268548
0.4390001,9.994642E-05
0.4380001,-6.191107E-05
0.4370001,-0.0002260782
0.4360001,-0.0003823871
0.4350001,-0.0005309299
0.4340001,-0.0006820582
0.4330001,-0.0008270555
0.4320001,-0.0009680677
0.4310001,-0.001111839
0.4300001,-0.001247946
0.4290001,-0.001384054
0.4280001,-0.001517709
0.4270001,-0.001645233
0.4260001,-0.001774596
0.4250001,-0.001900588
0.4240001,-0.002021674
0.4230001,-0.002146746
0.4220001,-0.0022663
0.4210001,-0.002384934
0.4200001,-0.002502955
0.4190001,-0.002615458
0.4180001,-0.002732253
0.4170001,-0.002844143
0.4160001,-0.002956646
0.4150001,-0.003072215
0.4140001,-0.003142003
0.4130001,-0.00325236
0.4120001,-0.003362718
0.4110001,-0.003470009
0.4100001,-0.003586498
0.4090001,-0.003702986
0.4080001,-0.003804147
0.4070001,-0.003914505
0.4060001,-0.004021796
0.4050001,-0.004129088
0.4040001,-0.004239446
0.4030001,-0.004349803
0.4020001,-0.00446016
0.4010001,-0.004570518
0.4000001,-0.004680875
0.3990001,-0.004791233
0.3980001,-0.004904655
0.3970001,-0.005018078
0.3960001,-0.005131501
0.3950001,-0.005241858
0.3940001,-0.005358347
0.3930001,-0.005468704
0.3920001,-0.005582127
0.3910001,-0.005701681
0.3900001,-0.005812038
0.3890001,-0.005928526
0.3880001,-0.006045015
0.3870001,-0.006152307
0.3860001,-0.006268795
0.3850001,-0.006385284
0.3840001,-0.00648951
0.3830001,-0.006605998
0.3820001,-0.006719421
0.3810001,-0.006826713
0.3800001,-0.006940136
0.3790001,-0.007047428
0.3780001,-0.007157785
0.3770001,-0.007265077
0.3760001,-0.007372369
0.3750001,-0.007476595
0.3740001,-0.007577756
0.3730001,-0.007685048
0.3720001,-0.007786209
0.3710001,-0.00788737
0.3700001,-0.007994662
0.3690001,-0.008086626
0.3680001,-0.008184722
