EXPID. 0651
[电化学]: CV : 0 >> 0.7 >> 0 >> 0(V) @ 0.01(V/s) X 10(Seg)
起始电位 (V),0
上限电位 (V),0.7
下限电位 (V),0
终止电位 (V),0
扫速 (V/s),0.01
电解液 信息:
KOH,1
0.001,9.29466E-06
0.002,9.693173E-06
0.003,9.972132E-06
0.004,1.030014E-05
0.005,1.062508E-05
0.006,1.096841E-05
0.007,1.11646E-05
0.008,1.140065E-05
0.009,1.159377E-05
0.01,1.179609E-05
0.011,1.190952E-05
0.012,1.207199E-05
0.013,1.226205E-05
0.014,1.252874E-05
0.015,1.284755E-05
0.016,1.298243E-05
0.017,1.313877E-05
0.018,1.334416E-05
0.019,1.345452E-05
0.02,1.361392E-05
0.021,1.376107E-05
0.022,1.394193E-05
0.023,1.42025E-05
0.024,1.44508E-05
0.025,1.453357E-05
0.026,1.475122E-05
0.027,1.489223E-05
0.028,1.504244E-05
0.029,1.511294E-05
0.03,1.528461E-05
0.031,1.545628E-05
0.032,1.565553E-05
0.033,1.590997E-05
0.034,1.605711E-05
0.035,1.620119E-05
0.036,1.638819E-05
0.037,1.648322E-05
0.038,1.656292E-05
0.039,1.674991E-05
0.04,1.690932E-05
0.041,1.718521E-05
0.042,1.736301E-05
0.043,1.743965E-05
0.044,1.759292E-05
0.045,1.770021E-05
0.046,1.779524E-05
0.047,1.796691E-05
0.048,1.814777E-05
0.049,1.835929E-05
0.05,1.851563E-05
0.051,1.864131E-05
0.052,1.879459E-05
0.053,1.881605E-05
0.054,1.895093E-05
0.055,1.915019E-05
0.056,1.939236E-05
0.057,1.951498E-05
0.058,1.967132E-05
0.059,1.97265E-05
0.06,1.986444E-05
0.061,1.992882E-05
0.062,2.00729E-05
0.063,2.033346E-05
0.064,2.05082E-05
0.065,2.065227E-05
0.066,2.076876E-05
0.067,2.086379E-05
0.068,2.098948E-05
0.069,2.103239E-05
0.07,2.117341E-05
0.071,2.133894E-05
0.072,2.156272E-05
0.073,2.171906E-05
0.074,2.183248E-05
0.075,2.193978E-05
0.076,2.211451E-05
0.077,2.213903E-05
0.078,2.22126E-05
0.079,2.232602E-05
0.08,2.241799E-05
0.081,2.266323E-05
0.082,2.288088E-05
0.083,2.29851E-05
0.084,2.312612E-05
0.085,2.322728E-05
0.086,2.334683E-05
0.087,2.345106E-05
0.088,2.35185E-05
0.089,2.363192E-05
0.09,2.376374E-05
0.091,2.393234E-05
0.092,2.452503E-05
0.093,2.46783E-05
0.094,2.477027E-05
0.095,2.49542E-05
0.096,2.501551E-05
0.097,2.513812E-05
0.098,2.526074E-05
0.099,2.532205E-05
0.1,2.550598E-05
0.101,2.556729E-05
0.102,2.575122E-05
0.103,2.593515E-05
0.104,2.605777E-05
0.105,2.62417E-05
0.106,2.639497E-05
0.107,2.648694E-05
0.108,2.667087E-05
0.109,2.670152E-05
0.11,2.682414E-05
0.111,2.694676E-05
0.112,2.706938E-05
0.113,2.7192E-05
0.114,2.734527E-05
0.115,2.749855E-05
0.116,2.765182E-05
0.117,2.78051E-05
0.118,2.798902E-05
0.119,2.820361E-05
0.12,2.829557E-05
0.121,2.844885E-05
0.122,2.860212E-05
0.123,2.872474E-05
0.124,2.890867E-05
0.125,2.903129E-05
0.126,2.912325E-05
0.127,2.933783E-05
0.128,2.94298E-05
0.129,2.958307E-05
0.13,2.973635E-05
0.131,2.982831E-05
0.132,3.001224E-05
0.133,3.016552E-05
0.134,3.031879E-05
0.135,3.053337E-05
0.136,3.068665E-05
0.137,3.080927E-05
0.138,3.09932E-05
0.139,3.120778E-05
0.14,3.145302E-05
0.141,3.160629E-05
0.142,3.182088E-05
0.143,3.203546E-05
0.144,3.218873E-05
0.145,3.234201E-05
0.146,3.258725E-05
0.147,3.270986E-05
0.148,3.292445E-05
0.149,3.310838E-05
0.15,3.326165E-05
0.151,3.350689E-05
0.152,3.366017E-05
0.153,3.381344E-05
0.154,3.396671E-05
0.155,3.415065E-05
0.156,3.439588E-05
0.157,3.467178E-05
0.158,3.491702E-05
0.159,3.51929E-05
0.16,3.540749E-05
0.161,3.559142E-05
0.162,3.583666E-05
0.163,3.592862E-05
0.164,3.623517E-05
0.165,3.638844E-05
0.166,3.657238E-05
0.167,3.687892E-05
0.168,3.709351E-05
0.169,3.73694E-05
0.17,3.77066E-05
0.171,3.792119E-05
0.172,3.822774E-05
0.173,3.847297E-05
0.174,3.868755E-05
0.175,3.902476E-05
0.176,3.920869E-05
0.177,3.951524E-05
0.178,3.979113E-05
0.179,4.003637E-05
0.18,4.034292E-05
0.181,4.061881E-05
0.182,4.095601E-05
0.183,4.126256E-05
0.184,4.153846E-05
0.185,4.1845E-05
0.186,4.215155E-05
0.187,4.248875E-05
0.188,4.288727E-05
0.189,4.316316E-05
0.19,4.350036E-05
0.191,4.386822E-05
0.192,4.420543E-05
0.193,4.457328E-05
0.194,4.500245E-05
0.195,4.5309E-05
0.196,4.570751E-05
0.197,4.610602E-05
0.198,4.647388E-05
0.199,4.693371E-05
0.2,4.727091E-05
0.201,4.773073E-05
0.202,4.81599E-05
0.203,4.855841E-05
0.204,4.904889E-05
0.205,4.950871E-05
0.206,4.999919E-05
0.207,5.045901E-05
0.208,5.091884E-05
0.209,5.140931E-05
0.21,5.189979E-05
0.211,5.239026E-05
0.212,5.294205E-05
0.213,5.343253E-05
0.214,5.3923E-05
0.215,5.450545E-05
0.216,5.502658E-05
0.217,5.563968E-05
0.218,5.619146E-05
0.219,5.680456E-05
0.22,5.744831E-05
0.221,5.803075E-05
0.222,5.858254E-05
0.223,5.92876E-05
0.224,5.990069E-05
0.225,6.054445E-05
0.226,6.121886E-05
0.227,6.192391E-05
0.228,6.262898E-05
0.229,6.330338E-05
0.23,6.400844E-05
0.231,6.474416E-05
0.232,6.547987E-05
0.233,6.62769E-05
0.234,6.710459E-05
0.235,6.780964E-05
0.236,6.866798E-05
0.237,6.949566E-05
0.238,7.032333E-05
0.239,7.121233E-05
0.24,7.210132E-05
0.241,7.295965E-05
0.242,7.390995E-05
0.243,7.482959E-05
0.244,7.571858E-05
0.245,7.67302E-05
0.246,7.76805E-05
0.247,7.878407E-05
0.248,7.979568E-05
0.249,8.092991E-05
0.25,8.203348E-05
0.251,8.307574E-05
0.252,8.433259E-05
0.253,8.543616E-05
0.254,8.660105E-05
0.255,8.788855E-05
0.256,8.905343E-05
0.257,9.034094E-05
0.258,9.159779E-05
0.259,9.282398E-05
0.26,9.426475E-05
0.261,9.558291E-05
0.262,9.693173E-05
0.263,9.834184E-05
0.264,9.978263E-05
0.265,0.000101254
0.266,0.0001027868
0.267,0.0001042582
0.268,0.0001059442
0.269,0.0001075383
0.27,0.0001091936
0.271,0.000110941
0.272,0.000112627
0.273,0.0001143743
0.274,0.0001162749
0.275,0.0001181142
0.276,0.0001201068
0.277,0.0001220074
0.278,0.0001239999
0.279,0.0001260538
0.28,0.0001281077
0.281,0.0001302535
0.282,0.00013243
0.283,0.0001346065
0.284,0.0001369056
0.285,0.0001392354
0.286,0.0001415958
0.287,0.0001440482
0.288,0.0001465312
0.289,0.0001490756
0.29,0.0001517426
0.291,0.0001543789
0.292,0.0001572298
0.293,0.0001599274
0.294,0.0001628089
0.295,0.0001659357
0.296,0.0001688173
0.297,0.0001719441
0.298,0.0001752242
0.299,0.0001783509
0.3,0.0001818456
0.301,0.0001853402
0.302,0.0001887736
0.303,0.0001925441
0.304,0.0001962227
0.305,0.0002000546
0.306,0.0002040704
0.307,0.0002082394
0.308,0.0002125004
0.309,0.0002165775
0.31,0.0002209612
0.311,0.0002256207
0.312,0.0002301576
0.313,0.000235093
0.314,0.0002400591
0.315,0.0002450865
0.316,0.0002505737
0.317,0.000255877
0.318,0.0002614255
0.319,0.0002674032
0.32,0.0002732889
0.321,0.0002794812
0.322,0.0002860107
0.323,0.0002924482
0.324,0.0003031879
0.325,0.000309932
0.326,0.0003172891
0.327,0.0003252594
0.328,0.0003332296
0.329,0.0003415065
0.33,0.0003507029
0.331,0.0003598994
0.332,0.000370322
0.333,0.0003807446
0.334,0.0003920869
0.335,0.0004046554
0.336,0.000417837
0.337,0.0004322447
0.338,0.0004484918
0.339,0.000465965
0.34,0.0004858907
0.341,0.0005076557
0.342,0.000531873
0.343,0.0005606884
0.344,0.0005919564
0.345,0.0006281291
0.346,0.0006698197
0.347,0.000716415
0.348,0.0007703675
0.349,0.0008313706
0.35,0.0009003439
0.351,0.0009794334
0.352,0.001067413
0.353,0.001166121
0.354,0.001276172
0.355,0.001397565
0.356,0.001531527
0.357,0.001676524
0.358,0.001835929
0.359,0.002007903
0.36,0.002190299
0.361,0.002387103
0.362,0.002595556
0.363,0.002813818
0.364,0.003046182
0.365,0.003316969
0.366,0.003565273
0.367,0.003825839
0.368,0.004092536
0.369,0.00436843
0.37,0.004650454
0.371,0.004938609
0.372,0.005235961
0.373,0.005536378
0.374,0.005839861
0.375,0.00615254
0.376,0.006465219
0.377,0.006787095
0.378,0.007112036
0.379,0.007436977
0.38,0.007771115
0.381,0.008102187
0.382,0.008442456
0.383,0.00878579
0.384,0.009126058
0.385,0.009478589
0.386,0.009828053
0.387,0.01018365
0.388,0.01053925
0.389,0.01089791
0.39,0.01125963
0.391,0.01162443
0.392,0.01199228
0.393,0.01236627
0.394,0.01273413
0.395,0.01310812
0.396,0.01348517
0.397,0.01385916
0.398,0.01423928
0.399,0.0146194
0.4,0.01499646
0.401,0.01538271
0.402,0.01576589
0.403,0.01614908
0.404,0.01653533
0.405,0.01691851
0.406,0.01730477
0.407,0.01769102
0.408,0.01807727
0.409,0.01846965
0.41,0.0188651
0.411,0.01925441
0.412,0.01964066
0.413,0.02002691
0.414,0.02041316
0.415,0.02079942
0.416,0.02118873
0.417,0.02157192
0.418,0.0219643
0.419,0.02234442
0.42,0.02272454
0.421,0.02310772
0.422,0.02348478
0.423,0.0238649
0.424,0.02424808
0.425,0.02462821
0.426,0.02499913
0.427,0.02537312
0.428,0.02574404
0.429,0.02611496
0.43,0.02648589
0.431,0.02684761
0.432,0.0272124
0.433,0.0275772
0.434,0.02792973
0.435,0.02829146
0.436,0.02864705
0.437,0.02898119
0.438,0.02933372
0.439,0.02967705
0.44,0.03000506
0.441,0.03114647
0.442,0.03145302
0.443,0.03175957
0.444,0.03209677
0.445,0.03240332
0.446,0.03270987
0.447,0.03301642
0.448,0.03332296
0.449,0.03359886
0.45,0.03390541
0.451,0.0341813
0.452,0.03445719
0.453,0.03473309
0.454,0.03497833
0.455,0.03522356
0.456,0.0354688
0.457,0.03568339
0.458,0.03592863
0.459,0.03614321
0.46,0.03632713
0.461,0.03654172
0.462,0.03672565
0.463,0.03690958
0.464,0.03706285
0.465,0.03721613
0.466,0.03733874
0.467,0.03746137
0.468,0.03758398
0.469,0.03767595
0.47,0.03773726
0.471,0.03779857
0.472,0.03785988
0.473,0.03789053
0.474,0.03789053
0.475,0.03789053
0.476,0.03785988
0.477,0.03779857
0.478,0.03773726
0.479,0.0376453
0.48,0.03755333
0.481,0.03740006
0.482,0.03724678
0.483,0.03709351
0.484,0.03687892
0.485,0.03663369
0.486,0.0364191
0.487,0.03614321
0.488,0.03583666
0.489,0.03553011
0.49,0.03519291
0.491,0.0348557
0.492,0.03448785
0.493,0.03408933
0.494,0.03369082
0.495,0.03329231
0.496,0.03286314
0.497,0.03246463
0.498,0.03206612
0.499,0.0316676
0.5,0.03129975
0.501,0.03093189
0.502,0.03059468
0.503,0.03028814
0.504,0.02998159
0.505,0.02973635
0.506,0.02952177
0.507,0.02936849
0.508,0.02924587
0.509,0.02915391
0.51,0.0290926
0.511,0.0290926
0.512,0.02912325
0.513,0.02918456
0.514,0.02927653
0.515,0.02936849
0.516,0.02955242
0.517,0.02970569
0.518,0.02988962
0.519,0.03010421
0.52,0.03034945
0.521,0.03059468
0.522,0.03087058
0.523,0.03111582
0.524,0.03139171
0.525,0.03169826
0.526,0.03200481
0.527,0.03231135
0.528,0.03264856
0.529,0.03298576
0.53,0.03332296
0.531,0.03369082
0.532,0.03405868
0.533,0.03439588
0.534,0.03476374
0.535,0.0351316
0.536,0.03553011
0.537,0.03589797
0.538,0.03626583
0.539,0.03666434
0.54,0.03706285
0.541,0.03746137
0.542,0.03785988
0.543,0.03828905
0.544,0.03868756
0.545,0.03908607
0.546,0.03948459
0.547,0.03991375
0.548,0.04031226
0.549,0.04074143
0.55,0.04113995
0.551,0.04156911
0.552,0.04199828
0.553,0.04242745
0.554,0.04282596
0.555,0.04325513
0.556,0.0436843
0.557,0.04411346
0.558,0.04454263
0.559,0.0449718
0.56,0.04540097
0.561,0.04586079
0.562,0.04628995
0.563,0.04671912
0.564,0.04717895
0.565,0.04757746
0.566,0.04803728
0.567,0.04846645
0.568,0.04889562
0.569,0.04935544
0.57,0.0497846
0.571,0.05021377
0.572,0.05067359
0.573,0.05110276
0.574,0.05156258
0.575,0.05202241
0.576,0.05245158
0.577,0.0529114
0.578,0.05334057
0.579,0.05380039
0.58,0.05426021
0.581,0.05472003
0.582,0.05517985
0.583,0.05560903
0.584,0.05606885
0.585,0.05652867
0.586,0.05698849
0.587,0.05741766
0.588,0.05790814
0.589,0.0583373
0.59,0.05879712
0.591,0.05925695
0.592,0.05971677
0.593,0.06017659
0.594,0.06063641
0.595,0.06109623
0.596,0.06155606
0.597,0.06201588
0.598,0.06247571
0.599,0.06296618
0.6,0.06339534
0.601,0.06385517
0.602,0.06434565
0.603,0.06480547
0.604,0.06526529
0.605,0.06575577
0.606,0.06618494
0.607,0.06664476
0.608,0.06713524
0.609,0.06759506
0.61,0.06808554
0.611,0.06854536
0.612,0.06900518
0.613,0.06949566
0.614,0.06998613
0.615,0.07044595
0.616,0.07093643
0.617,0.07139625
0.618,0.07185608
0.619,0.0723159
0.62,0.07277572
0.621,0.07323555
0.622,0.07369537
0.623,0.07412454
0.624,0.07458436
0.625,0.07507484
0.626,0.07547335
0.627,0.07593317
0.628,0.07642365
0.629,0.07682216
0.63,0.07731264
0.631,0.07777246
0.632,0.07820163
0.633,0.07869211
0.634,0.07915193
0.635,0.07964241
0.636,0.08013289
0.637,0.08059271
0.638,0.08108319
0.639,0.08154301
0.64,0.08200283
0.641,0.08249331
0.642,0.08298378
0.643,0.08347426
0.644,0.08393408
0.645,0.08442456
0.646,0.08491503
0.647,0.08537485
0.648,0.08586534
0.649,0.08635581
0.65,0.08681564
0.651,0.08730611
0.652,0.08776593
0.653,0.08825641
0.654,0.08874689
0.655,0.08920672
0.656,0.08969719
0.657,0.09018766
0.658,0.09064749
0.659,0.09113797
0.66,0.09162845
0.661,0.09208827
0.662,0.09257875
0.663,0.09306922
0.664,0.09352904
0.665,0.09401952
0.666,0.09451
0.667,0.09496982
0.668,0.0954603
0.669,0.09595077
0.67,0.09644125
0.671,0.09693173
0.672,0.09739155
0.673,0.09785137
0.674,0.09837251
0.675,0.09883233
0.676,0.0993228
0.677,0.09978263
0.678,0.1002731
0.679,0.1007636
0.68,0.101254
0.681,0.1017445
0.682,0.1022043
0.683,0.1026948
0.684,0.1031853
0.685,0.1036758
0.686,0.1041356
0.687,0.1046261
0.688,0.1051166
0.689,0.1055764
0.69,0.1060975
0.691,0.1065573
0.692,0.1070172
0.693,0.1075076
0.694,0.1079981
0.695,0.1084579
0.696,0.1089791
0.697,0.1094389
0.698,0.1099294
0.699,0.1104198
0.7,0.1105425
0.6990001,0.110052
0.6980001,0.1095922
0.6970001,0.1091017
0.6960001,0.1086112
0.6950001,0.1081514
0.6940001,0.1076609
0.6930001,0.1071704
0.6920001,0.1067106
0.6910001,0.1062201
0.6900001,0.1057297
0.6890001,0.1052698
0.6880001,0.1047794
0.6870001,0.1042889
0.6860001,0.1038291
0.6850001,0.1033386
0.6840001,0.1028788
0.6830001,0.1024189
0.6820001,0.1019285
0.6810001,0.101438
0.6800001,0.1009782
0.6790001,0.100457
0.6780001,0.09999721
0.6770001,0.09953739
0.6760001,0.09904691
0.6750001,0.09858709
0.6740001,0.09809661
0.6730001,0.09760614
0.6720001,0.09714631
0.6710001,0.09665584
0.6700001,0.09619602
0.6690001,0.09573619
0.6680001,0.09524571
0.6670001,0.09478589
0.6660001,0.09432607
0.6650001,0.09380494
0.6640001,0.09334511
0.6630001,0.09288529
0.6620001,0.09239481
0.6610001,0.09193499
0.6600001,0.09144451
0.6590001,0.09095404
0.6580001,0.09049422
0.6570001,0.09003439
0.6560001,0.08954392
0.6550001,0.08911475
0.6540001,0.08862427
0.6530001,0.0881338
0.6520001,0.08767397
0.6510001,0.08721415
0.6500001,0.08672367
0.6490001,0.08626385
0.6480001,0.08577337
0.6470001,0.08531355
0.6460001,0.08485373
0.6450001,0.08436324
0.6440001,0.08390342
0.6430001,0.0834436
0.6420001,0.08295313
0.6410001,0.08249331
0.6400001,0.08203348
0.6390001,0.08154301
0.6380001,0.08108319
0.6370001,0.08062336
0.6360001,0.08016354
0.6350001,0.07970371
0.6340001,0.07924389
0.6330001,0.07875342
0.6320001,0.07829359
0.6310001,0.07783377
0.6300001,0.07734329
0.6290001,0.07688347
0.6280001,0.07642365
0.6270001,0.07593317
0.6260001,0.075504
0.6250001,0.07504418
0.6240001,0.07455371
0.6230001,0.07409389
0.6220001,0.07363406
0.6210001,0.07314359
0.6200001,0.07271441
0.6190001,0.07225459
0.6180001,0.07176412
0.6170001,0.07130429
0.6160001,0.07084447
0.6150001,0.07038464
0.6140001,0.06992482
0.6130001,0.06943435
0.6120001,0.06897452
0.6110001,0.0685147
0.6100001,0.06802423
0.6090001,0.06759506
0.6080001,0.06713524
0.6070001,0.06664476
0.6060001,0.0662156
0.6050001,0.06575577
0.6040001,0.06526529
0.6030001,0.06483613
0.6020001,0.0643763
0.6010001,0.06388583
0.6000001,0.06345665
0.5990001,0.06299683
0.5980001,0.06253701
0.5970001,0.06207719
0.5960001,0.06158672
0.5950001,0.06112689
0.5940001,0.06069772
0.5930001,0.0602379
0.5920001,0.05977808
0.5910001,0.05931826
0.5900001,0.05885844
0.5890001,0.05842927
0.5880001,0.05796945
0.5870001,0.05750962
0.5860001,0.0570498
0.5850001,0.05658998
0.5840001,0.05613015
0.5830001,0.05570099
0.5820001,0.05524116
0.5810001,0.05478134
0.5800001,0.05432152
0.5790001,0.0538617
0.5780001,0.05340188
0.5770001,0.0529727
0.5760001,0.05251288
0.5750001,0.05205306
0.5740001,0.05159324
0.5730001,0.05116407
0.5720001,0.05070425
0.5710001,0.05024443
0.5700001,0.04981526
0.5690001,0.0493861
0.5680001,0.04892627
0.5670001,0.04846645
0.5660001,0.04803728
0.5650001,0.04757746
0.5640001,0.04714829
0.5630001,0.04671912
0.5620001,0.04622864
0.5610001,0.04579948
0.5600001,0.04537031
0.5590001,0.04491049
0.5580001,0.04448132
0.5570001,0.0440215
0.5560001,0.04359233
0.5550001,0.04316316
0.5540001,0.04270334
0.5530001,0.04227417
0.5520001,0.04184501
0.5510001,0.04138518
0.5500001,0.04095602
0.5490001,0.04052685
0.5480001,0.04009768
0.5470001,0.03963786
0.5460001,0.03920869
0.5450001,0.03877952
0.5440001,0.03835035
0.5430001,0.03792119
0.5420001,0.03749202
0.5410001,0.0370322
0.5400001,0.03663369
0.5390001,0.03620452
0.5380001,0.03577535
0.5370001,0.03534618
0.5360001,0.03491702
0.5350001,0.03448785
0.5340001,0.03405868
0.5330001,0.03362951
0.5320001,0.03320035
0.5310001,0.03280183
0.5300001,0.03237266
0.5290001,0.0319435
0.5280001,0.03151433
0.5270001,0.03111582
0.5260001,0.03068665
0.5250001,0.03025748
0.5240001,0.02985897
0.5230001,0.0294298
0.5220001,0.02900063
0.5210001,0.02860212
0.5200001,0.02820361
0.5190001,0.02777444
0.5180001,0.02737593
0.5170001,0.02697741
0.5160001,0.02654825
0.5150001,0.02614973
0.5140001,0.02575122
0.5130001,0.02535271
0.5120001,0.02492354
0.5110001,0.02452503
0.5100001,0.02412652
0.5090001,0.023728
0.5080001,0.02332949
0.5070001,0.02293098
0.5060001,0.02253246
0.5050001,0.02213395
0.5040001,0.02176609
0.5030001,0.02136758
0.5020001,0.02096907
0.5010001,0.02057056
0.5000001,0.0202027
0.4990001,0.01980419
0.4980001,0.01943633
0.4970001,0.01906847
0.4960001,0.01870061
0.4950001,0.0183021
0.4940001,0.01793424
0.4930001,0.01756638
0.4920001,0.01719853
0.4910001,0.01683067
0.4900001,0.01646281
0.4890001,0.01609495
0.4880001,0.01575775
0.4870001,0.01538989
0.4860001,0.01502203
0.4850001,0.01465417
0.4840001,0.01431697
0.4830001,0.01394911
0.4820001,0.01361191
0.4810001,0.01327471
0.4800001,0.01241532
0.4790001,0.01208425
0.4780001,0.01175318
0.4770001,0.01141904
0.4760001,0.01109716
0.4750001,0.01076916
0.4740001,0.01045035
0.4730001,0.01012847
0.4720001,0.009815792
0.4710001,0.009506178
0.4700001,0.009196565
0.4690001,0.008893081
0.4680001,0.008589599
0.4670001,0.008289182
0.4660001,0.007994896
0.4650001,0.007703674
0.4640001,0.007418585
0.4630001,0.007130429
0.4620001,0.00685147
0.4610001,0.006572511
0.4600001,0.006299683
0.4590001,0.006032987
0.4580001,0.005769355
0.4570001,0.005511854
0.4560001,0.005254354
0.4550001,0.005002984
0.4540001,0.004760811
0.4530001,0.004518638
0.4520001,0.004276465
0.4510001,0.004049619
0.4500001,0.003819708
0.4490001,0.003595928
0.4480001,0.003375213
0.4470001,0.003160629
0.4460001,0.002955242
0.4450001,0.00275292
0.4440001,0.002547533
0.4430001,0.002360538
0.4420001,0.002167413
0.4410001,0.001983484
0.4400001,0.001808751
0.4390001,0.001634019
0.4380001,0.001465417
0.4370001,0.001302947
0.4360001,0.001140476
0.4350001,0.0009588947
0.4340001,0.0008083794
0.4330001,0.0006643018
0.4320001,0.0005263551
0.4310001,0.0003881018
0.4300001,0.0002602712
0.4290001,0.0001339733
0.4280001,9.208122E-06
0.4270001,-0.0001080877
0.4260001,-0.0002219398
0.4250001,-0.0003314695
0.4240001,-0.000433141
0.4230001,-0.0005352216
0.4220001,-0.0006333171
0.4210001,-0.0007246684
0.4200001,-0.0008160198
0.4190001,-0.0009006272
0.4180001,-0.000984928
0.4170001,-0.001064631
0.4160001,-0.001142494
0.4150001,-0.001220051
0.4140001,-0.001288717
0.4130001,-0.001358917
0.4120001,-0.001427584
0.4110001,-0.0014892
0.4100001,-0.001560013
0.4090001,-0.001626534
0.4080001,-0.001678953
0.4070001,-0.001737811
0.4060001,-0.00179023
0.4050001,-0.001842037
0.4040001,-0.001896603
0.4030001,-0.00194657
0.4020001,-0.001996537
0.4010001,-0.002045278
0.4000001,-0.002091261
0.3990001,-0.002140308
0.3980001,-0.002184451
0.3970001,-0.002231966
0.3960001,-0.002278255
0.3950001,-0.002318413
0.3940001,-0.002365008
0.3930001,-0.002407618
0.3920001,-0.00244747
0.3910001,-0.002494371
0.3900001,-0.002536062
0.3890001,-0.00257714
0.3880001,-0.002622815
0.3870001,-0.002661441
0.3860001,-0.002704664
0.3850001,-0.002749113
0.3840001,-0.002787738
0.3830001,-0.002832494
0.3820001,-0.002874798
0.3810001,-0.002917408
0.3800001,-0.002963697
0.3790001,-0.003005387
0.3780001,-0.003016318
0.3770001,-0.003059235
0.3760001,-0.003102152
0.3750001,-0.003148134
0.3740001,-0.003194116
0.3730001,-0.003243164
0.3720001,-0.003289146
0.3710001,-0.003338194
0.3700001,-0.003387242
0.3690001,-0.003436289
0.3680001,-0.003485337
0.3670001,-0.00353745
0.3660001,-0.003586498
0.3650001,-0.003641677
0.3640001,-0.003696855
0.3630001,-0.003748968
0.3620001,-0.003804147
0.3610001,-0.003859326
0.3600001,-0.003914505
0.3590001,-0.003975814
0.3580001,-0.004034058
0.3570001,-0.004095368
0.3560001,-0.004156678
