EXPID. 0733
[电化学]: CV : 0 >> 0.7 >> 0 >> 0(V) @ 0.01(V/s) X 10(Seg)
起始电位 (V),0
上限电位 (V),0.7
下限电位 (V),0
终止电位 (V),0
扫速 (V/s),0.01
电解液 信息:
KOH,1
0.001,0.0005376973
0.002,0.0005588492
0.003,0.0005793879
0.004,0.0006008463
0.005,0.0006223046
0.006,0.0006443762
0.007,0.0006679803
0.008,0.0006918911
0.009,0.0007167216
0.01,0.0007427782
0.011,0.0007694478
0.012,0.0007982634
0.013,0.0008273855
0.014,0.0008580403
0.015,0.0008902278
0.016,0.0009233351
0.017,0.0009585881
0.018,0.0009950673
0.019,0.001032773
0.02,0.001073237
0.021,0.001114315
0.022,0.001157231
0.023,0.001202907
0.024,0.001249196
0.025,0.001297937
0.026,0.001349131
0.027,0.001401244
0.028,0.001457036
0.029,0.001513747
0.03,0.001572298
0.031,0.001634527
0.032,0.001697983
0.033,0.00176389
0.034,0.001832251
0.035,0.001902144
0.036,0.001975715
0.037,0.002050207
0.038,0.002127457
0.039,0.002207466
0.04,0.002288088
0.041,0.002372695
0.042,0.002459142
0.043,0.002546202
0.044,0.002638779
0.045,0.00273013
0.046,0.002824241
0.047,0.002922643
0.048,0.003019512
0.049,0.003157564
0.05,0.003255659
0.051,0.003359886
0.052,0.003467177
0.053,0.003574469
0.054,0.003681761
0.055,0.003795184
0.056,0.003908607
0.057,0.00402203
0.058,0.004141584
0.059,0.004258072
0.06,0.004377626
0.061,0.00449718
0.062,0.004622865
0.063,0.004745483
0.064,0.004871169
0.065,0.004999919
0.066,0.005125604
0.067,0.005254354
0.068,0.005389235
0.069,0.005521051
0.07,0.005655932
0.071,0.005796944
0.072,0.00592876
0.073,0.006069772
0.074,0.00621385
0.075,0.006351797
0.076,0.006502005
0.077,0.006646083
0.078,0.006793226
0.079,0.0069465
0.08,0.007096709
0.081,0.007249983
0.082,0.007409388
0.083,0.007565727
0.084,0.007731264
0.085,0.007893735
0.086,0.00805927
0.087,0.008227872
0.088,0.008393408
0.089,0.008571207
0.09,0.008749004
0.091,0.008929867
0.092,0.009113796
0.093,0.009300791
0.094,0.009490851
0.095,0.009683976
0.096,0.009883232
0.097,0.01008555
0.098,0.01028788
0.099,0.01049939
0.1,0.01071398
0.101,0.0109255
0.102,0.01115541
0.103,0.01138225
0.104,0.0116091
0.105,0.01185127
0.106,0.01208731
0.107,0.01232949
0.108,0.01258392
0.109,0.01283529
0.11,0.01308973
0.111,0.01335642
0.112,0.01362006
0.113,0.01389288
0.114,0.01416571
0.115,0.0144416
0.116,0.01472363
0.117,0.01500565
0.118,0.01529074
0.119,0.0155789
0.12,0.01586092
0.121,0.01615521
0.122,0.01644336
0.123,0.01672846
0.124,0.01701661
0.125,0.01729557
0.126,0.01757453
0.127,0.01785349
0.128,0.01812018
0.129,0.01838995
0.13,0.01865664
0.131,0.01891414
0.132,0.01916858
0.133,0.01941995
0.134,0.01967132
0.135,0.01991962
0.136,0.02016486
0.137,0.02041316
0.138,0.02065534
0.139,0.02089751
0.14,0.02113969
0.141,0.02138492
0.142,0.02163016
0.143,0.0218754
0.144,0.02211757
0.145,0.02236894
0.146,0.02261112
0.147,0.02285635
0.148,0.02311079
0.149,0.02335296
0.15,0.02360433
0.151,0.0238557
0.152,0.02409788
0.153,0.02434925
0.154,0.02460674
0.155,0.02485199
0.156,0.02510642
0.157,0.02535472
0.158,0.02559996
0.159,0.02585133
0.16,0.0261027
0.161,0.02635407
0.162,0.02660237
0.163,0.02685374
0.164,0.02710205
0.165,0.02734729
0.166,0.02759866
0.167,0.02784389
0.168,0.02808913
0.169,0.0283405
0.17,0.02858268
0.171,0.02882485
0.172,0.02907622
0.173,0.0293092
0.174,0.02955137
0.175,0.02979967
0.176,0.03003265
0.177,0.03108516
0.178,0.03129975
0.179,0.03151433
0.18,0.03175957
0.181,0.03200481
0.182,0.03225004
0.183,0.03246463
0.184,0.03270987
0.185,0.03292445
0.186,0.03316969
0.187,0.03338427
0.188,0.03362951
0.189,0.03384409
0.19,0.03405868
0.191,0.03427326
0.192,0.03448785
0.193,0.03473309
0.194,0.03494767
0.195,0.03516225
0.196,0.03537684
0.197,0.03559142
0.198,0.035806
0.199,0.03602059
0.2,0.03623517
0.201,0.03644976
0.202,0.03666434
0.203,0.03687892
0.204,0.03709351
0.205,0.03730809
0.206,0.03752267
0.207,0.03770661
0.208,0.03792119
0.209,0.03813577
0.21,0.03835035
0.211,0.03856494
0.212,0.03877952
0.213,0.03896345
0.214,0.03917804
0.215,0.03939262
0.216,0.0396072
0.217,0.03982178
0.218,0.04000572
0.219,0.0402203
0.22,0.04043488
0.221,0.04061881
0.222,0.04083339
0.223,0.04104798
0.224,0.04123191
0.225,0.04144649
0.226,0.04166108
0.227,0.04184501
0.228,0.04205959
0.229,0.04227417
0.23,0.0424581
0.231,0.04267269
0.232,0.04288727
0.233,0.0430712
0.234,0.04328578
0.235,0.04346971
0.236,0.0436843
0.237,0.04389888
0.238,0.04408281
0.239,0.04426674
0.24,0.04448132
0.241,0.04466525
0.242,0.04484918
0.243,0.04506376
0.244,0.04524769
0.245,0.04543162
0.246,0.0456462
0.247,0.04583013
0.248,0.04601406
0.249,0.04619799
0.25,0.04638192
0.251,0.04656585
0.252,0.04674978
0.253,0.04693371
0.254,0.04711764
0.255,0.04730156
0.256,0.04745484
0.257,0.04763877
0.258,0.0478227
0.259,0.04797597
0.26,0.04812925
0.261,0.04831317
0.262,0.04846645
0.263,0.04861972
0.264,0.048773
0.265,0.04895693
0.266,0.0491102
0.267,0.04926347
0.268,0.0493861
0.269,0.04953937
0.27,0.04969264
0.271,0.04981526
0.272,0.04996854
0.273,0.05009115
0.274,0.05021377
0.275,0.05033639
0.276,0.05048966
0.277,0.05058163
0.278,0.05070425
0.279,0.05082687
0.28,0.05091884
0.281,0.05104145
0.282,0.05113342
0.283,0.05122538
0.284,0.05131735
0.285,0.05140931
0.286,0.05150127
0.287,0.05156258
0.288,0.05165455
0.289,0.05171586
0.29,0.05177717
0.291,0.05183848
0.292,0.05189979
0.293,0.05193045
0.294,0.05199176
0.295,0.05202241
0.296,0.05205306
0.297,0.05205306
0.298,0.05205306
0.299,0.05208372
0.3,0.05205306
0.301,0.05202241
0.302,0.05202241
0.303,0.0519611
0.304,0.05193045
0.305,0.05186913
0.306,0.05180782
0.307,0.05171586
0.308,0.05165455
0.309,0.05153193
0.31,0.05140931
0.311,0.05131735
0.312,0.05116407
0.313,0.0510108
0.314,0.05085753
0.315,0.05070425
0.316,0.05048966
0.317,0.05030574
0.318,0.05009115
0.319,0.04987657
0.32,0.04963133
0.321,0.04935544
0.322,0.0491102
0.323,0.04880365
0.324,0.04846645
0.325,0.0481599
0.326,0.04779204
0.327,0.04742418
0.328,0.04702567
0.329,0.0465965
0.33,0.04619799
0.331,0.04573817
0.332,0.04524769
0.333,0.04478787
0.334,0.04426674
0.335,0.0437456
0.336,0.04319382
0.337,0.04267269
0.338,0.04209024
0.339,0.0415078
0.34,0.04095602
0.341,0.04037357
0.342,0.03979113
0.343,0.03920869
0.344,0.03862625
0.345,0.03801315
0.346,0.03743071
0.347,0.03681761
0.348,0.03617386
0.349,0.03553011
0.35,0.03482505
0.351,0.03408933
0.352,0.03335362
0.353,0.03258725
0.354,0.03172891
0.355,0.03090123
0.356,0.02998159
0.357,0.02903129
0.358,0.02805033
0.359,0.02706938
0.36,0.02605777
0.361,0.02507682
0.362,0.02409586
0.363,0.02314556
0.364,0.02225657
0.365,0.02139824
0.366,0.02063187
0.367,0.01989615
0.368,0.01916043
0.369,0.01854734
0.37,0.01793424
0.371,0.0173518
0.372,0.01683067
0.373,0.01634019
0.374,0.01584971
0.375,0.01542055
0.376,0.01499138
0.377,0.01462352
0.378,0.01422501
0.379,0.0138878
0.38,0.01358126
0.381,0.01327471
0.382,0.01247663
0.383,0.01220993
0.384,0.0119555
0.385,0.01173172
0.386,0.011511
0.387,0.01129948
0.388,0.01111556
0.389,0.0109255
0.39,0.01075383
0.391,0.01059442
0.392,0.01042889
0.393,0.01028481
0.394,0.01014686
0.395,0.01000892
0.396,0.009886298
0.397,0.009769809
0.398,0.009653321
0.399,0.009542963
0.4,0.009441803
0.401,0.009340642
0.402,0.009242547
0.403,0.009159779
0.404,0.009073945
0.405,0.008988111
0.406,0.008914541
0.407,0.008837903
0.408,0.008761265
0.409,0.008706087
0.41,0.008644777
0.411,0.008577337
0.412,0.008525223
0.413,0.008457784
0.414,0.008402605
0.415,0.008356622
0.416,0.008301443
0.417,0.008252396
0.418,0.008209479
0.419,0.008160431
0.42,0.008120581
0.421,0.008080728
0.422,0.008040877
0.423,0.008007158
0.424,0.007970371
0.425,0.007936651
0.426,0.00790293
0.427,0.007872276
0.428,0.007841621
0.429,0.007810966
0.43,0.007786443
0.431,0.007755788
0.432,0.007731264
0.433,0.007712871
0.434,0.007685281
0.435,0.007663823
0.436,0.007648496
0.437,0.007623971
0.438,0.007608644
0.439,0.007596382
0.44,0.007574924
0.441,0.007562662
0.442,0.007553466
0.443,0.007535073
0.444,0.007525877
0.445,0.00751668
0.446,0.007498287
0.447,0.007495221
0.448,0.00748909
0.449,0.007482959
0.45,0.007479894
0.451,0.007473763
0.452,0.007470698
0.453,0.007467632
0.454,0.007467632
0.455,0.007464567
0.456,0.007464567
0.457,0.007470698
0.458,0.007470698
0.459,0.007476829
0.46,0.007486025
0.461,0.007492156
0.462,0.007498287
0.463,0.007507483
0.464,0.007513615
0.465,0.007532008
0.466,0.007544269
0.467,0.007556531
0.468,0.007581055
0.469,0.007593317
0.47,0.007614775
0.471,0.007642365
0.472,0.007660758
0.473,0.007691412
0.474,0.007725133
0.475,0.007752722
0.476,0.007786443
0.477,0.007823228
0.478,0.00786308
0.479,0.007905996
0.48,0.007951979
0.481,0.008001027
0.482,0.008050074
0.483,0.008105253
0.484,0.008166562
0.485,0.008224807
0.486,0.008292247
0.487,0.008365818
0.488,0.008436324
0.489,0.008519093
0.49,0.008604926
0.491,0.008687695
0.492,0.008788855
0.493,0.008883885
0.494,0.008991177
0.495,0.009101534
0.496,0.009208826
0.497,0.009337576
0.498,0.009463261
0.499,0.009588946
0.5,0.009736089
0.501,0.009867905
0.502,0.01002118
0.503,0.01018058
0.504,0.01033079
0.505,0.01050246
0.506,0.01067719
0.507,0.01084886
0.508,0.01104198
0.509,0.01123204
0.51,0.01141904
0.511,0.01162443
0.512,0.01184208
0.513,0.01205359
0.514,0.01227124
0.515,0.01249502
0.516,0.012728
0.517,0.01295791
0.518,0.01320315
0.519,0.01345145
0.52,0.01369976
0.521,0.01395419
0.522,0.01421782
0.523,0.01447839
0.524,0.01475122
0.525,0.01503018
0.526,0.01530607
0.527,0.01559116
0.528,0.01587932
0.529,0.01616747
0.53,0.01647095
0.531,0.01676831
0.532,0.01707179
0.533,0.0173814
0.534,0.01768488
0.535,0.01800063
0.536,0.01832251
0.537,0.01863825
0.538,0.01896319
0.539,0.01929426
0.54,0.0196192
0.541,0.01995641
0.542,0.02029974
0.543,0.02063081
0.544,0.02097415
0.545,0.02132668
0.546,0.02166695
0.547,0.02201641
0.548,0.02237508
0.549,0.02272454
0.55,0.0230832
0.551,0.02344799
0.552,0.02380666
0.553,0.02417145
0.554,0.0245393
0.555,0.02490716
0.556,0.02527809
0.557,0.02564901
0.558,0.02602606
0.559,0.02640005
0.56,0.02678017
0.561,0.02716336
0.562,0.02754348
0.563,0.02792666
0.564,0.02831598
0.565,0.0286961
0.566,0.02909155
0.567,0.02948393
0.568,0.02987018
0.569,0.03105451
0.57,0.03142237
0.571,0.03182088
0.572,0.03225004
0.573,0.0326179
0.574,0.03304707
0.575,0.03344558
0.576,0.03387475
0.577,0.03427326
0.578,0.03467178
0.579,0.03510094
0.58,0.03549946
0.581,0.03592863
0.582,0.03632713
0.583,0.0367563
0.584,0.03718547
0.585,0.03758398
0.586,0.03801315
0.587,0.03844232
0.588,0.03887149
0.589,0.03927
0.59,0.03969917
0.591,0.04012834
0.592,0.0405575
0.593,0.04098667
0.594,0.04141584
0.595,0.04184501
0.596,0.04227417
0.597,0.04270334
0.598,0.04313251
0.599,0.04359233
0.6,0.0440215
0.601,0.04445067
0.602,0.04487984
0.603,0.045309
0.604,0.04576882
0.605,0.04619799
0.606,0.04665781
0.607,0.04708698
0.608,0.04751615
0.609,0.04797597
0.61,0.04840514
0.611,0.04886496
0.612,0.04929413
0.613,0.04972329
0.614,0.05018312
0.615,0.05061228
0.616,0.05107211
0.617,0.05153193
0.618,0.0519611
0.619,0.05242092
0.62,0.05288074
0.621,0.05330991
0.622,0.05376973
0.623,0.05422956
0.624,0.05468938
0.625,0.0551492
0.626,0.05560903
0.627,0.05606885
0.628,0.05652867
0.629,0.05698849
0.63,0.05741766
0.631,0.05787748
0.632,0.05836796
0.633,0.05879712
0.634,0.05925695
0.635,0.05974742
0.636,0.06017659
0.637,0.06063641
0.638,0.06112689
0.639,0.06158672
0.64,0.06204654
0.641,0.06250636
0.642,0.06296618
0.643,0.06345665
0.644,0.06391648
0.645,0.0643763
0.646,0.06483613
0.647,0.0653266
0.648,0.06575577
0.649,0.06624625
0.65,0.06670607
0.651,0.0671659
0.652,0.06762572
0.653,0.06811619
0.654,0.06857602
0.655,0.06903584
0.656,0.06952631
0.657,0.06998613
0.658,0.07047661
0.659,0.07093643
0.66,0.07139625
0.661,0.07185608
0.662,0.07234656
0.663,0.07280638
0.664,0.07329686
0.665,0.07375668
0.666,0.07421651
0.667,0.07470698
0.668,0.07519746
0.669,0.07565728
0.67,0.07614776
0.671,0.07660758
0.672,0.0770674
0.673,0.07755788
0.674,0.07804836
0.675,0.07850818
0.676,0.07899866
0.677,0.07945848
0.678,0.0799183
0.679,0.08040877
0.68,0.08089925
0.681,0.08135908
0.682,0.0818189
0.683,0.08230938
0.684,0.0827692
0.685,0.08325968
0.686,0.08375015
0.687,0.08420997
0.688,0.08470046
0.689,0.08519093
0.69,0.08568141
0.691,0.08617189
0.692,0.08663171
0.693,0.08712219
0.694,0.08758201
0.695,0.08807249
0.696,0.08856296
0.697,0.08902278
0.698,0.08951326
0.699,0.08997308
0.7,0.0900957
0.6990001,0.08963588
0.6980001,0.08920672
0.6970001,0.08871623
0.6960001,0.08825641
0.6950001,0.08779659
0.6940001,0.08736742
0.6930001,0.08687695
0.6920001,0.08644778
0.6910001,0.08598796
0.6900001,0.08552813
0.6890001,0.08509897
0.6880001,0.08463915
0.6870001,0.08414867
0.6860001,0.0837195
0.6850001,0.08325968
0.6840001,0.0827692
0.6830001,0.08234003
0.6820001,0.08184955
0.6810001,0.08142038
0.6800001,0.08096056
0.6790001,0.0805314
0.6780001,0.08007158
0.6770001,0.07961175
0.6760001,0.07915193
0.6750001,0.07869211
0.6740001,0.07823228
0.6730001,0.07780312
0.6720001,0.07734329
0.6710001,0.07688347
0.6700001,0.07642365
0.6690001,0.07596382
0.6680001,0.07553466
0.6670001,0.07510549
0.6660001,0.07461502
0.6650001,0.07418585
0.6640001,0.07375668
0.6630001,0.0732662
0.6620001,0.07283704
0.6610001,0.07237721
0.6600001,0.07191739
0.6590001,0.07148822
0.6580001,0.0710284
0.6570001,0.07056858
0.6560001,0.07010876
0.6550001,0.06967959
0.6540001,0.06918911
0.6530001,0.06875994
0.6520001,0.06833078
0.6510001,0.06787095
0.6500001,0.06741113
0.6490001,0.06698196
0.6480001,0.06652214
0.6470001,0.06609298
0.6460001,0.06563315
0.6450001,0.06520399
0.6440001,0.06474417
0.6430001,0.06431499
0.6420001,0.06385517
0.6410001,0.063426
0.6400001,0.06296618
0.6390001,0.06250636
0.6380001,0.06207719
0.6370001,0.06161737
0.6360001,0.0611882
0.6350001,0.06075903
0.6340001,0.06029921
0.6330001,0.05987004
0.6320001,0.05941022
0.6310001,0.05898106
0.6300001,0.05852123
0.6290001,0.05809207
0.6280001,0.05766289
0.6270001,0.05720307
0.6260001,0.05677391
0.6250001,0.05631408
0.6240001,0.05588492
0.6230001,0.05545575
0.6220001,0.05502658
0.6210001,0.05456676
0.6200001,0.05413759
0.6190001,0.05370842
0.6180001,0.0532486
0.6170001,0.05281943
0.6160001,0.05239027
0.6150001,0.0519611
0.6140001,0.05153193
0.6130001,0.05107211
0.6120001,0.05064294
0.6110001,0.05021377
0.6100001,0.04981526
0.6090001,0.04935544
0.6080001,0.04895693
0.6070001,0.0484971
0.6060001,0.04806793
0.6050001,0.04766942
0.6040001,0.0472096
0.6030001,0.04681109
0.6020001,0.04635127
0.6010001,0.0459221
0.6000001,0.04549293
0.5990001,0.04506376
0.5980001,0.0446346
0.5970001,0.04423608
0.5960001,0.04380691
0.5950001,0.04337775
0.5940001,0.04294858
0.5930001,0.04255007
0.5920001,0.0421209
0.5910001,0.04169173
0.5900001,0.04126256
0.5890001,0.04086405
0.5880001,0.04043488
0.5870001,0.04003637
0.5860001,0.0396072
0.5850001,0.03917804
0.5840001,0.03877952
0.5830001,0.03835035
0.5820001,0.03795184
0.5810001,0.03752267
0.5800001,0.03709351
0.5790001,0.036695
0.5780001,0.03629648
0.5770001,0.03589797
0.5760001,0.0354688
0.5750001,0.03507029
0.5740001,0.03467178
0.5730001,0.03424261
0.5720001,0.03384409
0.5710001,0.03344558
0.5700001,0.03304707
0.5690001,0.03264856
0.5680001,0.03225004
0.5670001,0.03185153
0.5660001,0.03145302
0.5650001,0.03105451
0.5640001,0.03065599
0.5630001,0.03022683
0.5620001,0.02982831
0.5610001,0.02946045
0.5600001,0.02906194
0.5590001,0.02866343
0.5580001,0.02826492
0.5570001,0.02789706
0.5560001,0.02749855
0.5550001,0.02710003
0.5540001,0.02673218
0.5530001,0.02633366
0.5520001,0.0259658
0.5510001,0.02556729
0.5500001,0.02519943
0.5490001,0.02480092
0.5480001,0.02443307
0.5470001,0.02406521
0.5460001,0.02366669
0.5450001,0.02329884
0.5440001,0.02293098
0.5430001,0.02256312
0.5420001,0.02219526
0.5410001,0.02179675
0.5400001,0.02145955
0.5390001,0.02109169
0.5380001,0.02072383
0.5370001,0.02035597
0.5360001,0.02001877
0.5350001,0.01965091
0.5340001,0.01928305
0.5330001,0.01894585
0.5320001,0.01857799
0.5310001,0.01824079
0.5300001,0.01790359
0.5290001,0.01753573
0.5280001,0.01719853
0.5270001,0.01686132
0.5260001,0.01652412
0.5250001,0.01615626
0.5240001,0.01581906
0.5230001,0.01548185
0.5220001,0.01517531
0.5210001,0.0148381
0.5200001,0.0145009
0.5190001,0.0141637
0.5180001,0.01382649
0.5170001,0.01351995
0.5160001,0.01318274
0.5150001,0.01237547
0.5140001,0.01206279
0.5130001,0.01175318
0.5120001,0.0114405
0.5110001,0.01113395
0.5100001,0.0108366
0.5090001,0.01053618
0.5080001,0.01023883
0.5070001,0.009950673
0.5060001,0.009656386
0.5050001,0.009365166
0.5040001,0.009086207
0.5030001,0.008798052
0.5020001,0.008519093
0.5010001,0.008243199
0.5000001,0.007967305
0.4990001,0.007697543
0.4980001,0.007427781
0.4970001,0.00716415
0.4960001,0.006903583
0.4950001,0.006646083
0.4940001,0.006391648
0.4930001,0.006137213
0.4920001,0.005885844
0.4910001,0.005646735
0.4900001,0.005401497
0.4890001,0.005162389
0.4880001,0.004929413
0.4870001,0.004696436
0.4860001,0.004472656
0.4850001,0.00424581
0.4840001,0.00402203
0.4830001,0.003810511
0.4820001,0.003592863
0.4810001,0.003384409
0.4800001,0.003179022
0.4790001,0.002970569
0.4780001,0.002777444
0.4770001,0.002581253
0.4760001,0.002388128
0.4750001,0.002204199
0.4740001,0.002017204
0.4730001,0.001836341
0.4720001,0.001664674
0.4710001,0.001489941
0.4700001,0.001324405
0.4690001,0.001161935
0.4680001,0.0009668649
0.4670001,0.0008111384
0.4660001,0.0006575577
0.4650001,0.0005104145
0.4640001,0.0003666434
0.4630001,0.0002219526
0.4620001,8.799104E-05
0.4610001,-4.964914E-05
0.4600001,-0.0001847861
0.4590001,-0.0003041867
0.4580001,-0.000429769
0.4570001,-0.0005477901
0.4560001,-0.0006587606
0.4550001,-0.0007746358
0.4540001,-0.0008807015
0.4530001,-0.0009840083
0.4520001,-0.001087622
0.4510001,-0.001182345
0.4500001,-0.001278295
0.4490001,-0.001370872
0.4480001,-0.001458239
0.4470001,-0.001545911
0.4460001,-0.001625921
0.4450001,-0.001703171
0.4440001,-0.001780421
0.4430001,-0.001851233
0.4420001,-0.001925418
0.4410001,-0.001993472
0.4400001,-0.002055701
0.4390001,-0.002122528
0.4380001,-0.00217924
0.4370001,-0.002237791
0.4360001,-0.002295115
0.4350001,-0.002343243
0.4340001,-0.002396889
0.4330001,-0.002446857
0.4320001,-0.002490386
0.4310001,-0.002539434
0.4300001,-0.002579592
0.4290001,-0.002621282
0.4280001,-0.002664199
0.4270001,-0.002697306
0.4260001,-0.002735012
0.4250001,-0.002770572
0.4240001,-0.002801533
0.4230001,-0.00283556
0.4220001,-0.002865908
0.4210001,-0.002892884
0.4200001,-0.002921393
0.4190001,-0.002945917
0.4180001,-0.002972587
0.4170001,-0.002995885
0.4160001,-0.002982598
0.4150001,-0.003007122
0.4140001,-0.003022449
0.4130001,-0.003043907
0.4120001,-0.0030623
0.4110001,-0.003077628
0.4100001,-0.003102152
0.4090001,-0.003126675
0.4080001,-0.003135872
0.4070001,-0.003151199
0.4060001,-0.003160396
0.4050001,-0.003172658
0.4040001,-0.003187985
0.4030001,-0.003197182
0.4020001,-0.003209443
0.4010001,-0.003221706
0.4000001,-0.003227836
0.3990001,-0.003240098
0.3980001,-0.003249295
0.3970001,-0.003258491
0.3960001,-0.003270753
0.3950001,-0.003273819
0.3940001,-0.003283015
0.3930001,-0.003289146
0.3920001,-0.003295277
0.3910001,-0.003307539
0.3900001,-0.003310604
0.3890001,-0.003316735
0.3880001,-0.003322866
0.3870001,-0.003325932
0.3860001,-0.003335128
0.3850001,-0.003338194
0.3840001,-0.003338194
0.3830001,-0.00334739
0.3820001,-0.003350456
0.3810001,-0.003353521
0.3800001,-0.003359652
0.3790001,-0.003359652
0.3780001,-0.003365783
0.3770001,-0.003371914
0.3760001,-0.003368848
0.3750001,-0.003374979
0.3740001,-0.003378045
0.3730001,-0.003378045
0.3720001,-0.00338111
0.3710001,-0.003384176
0.3700001,-0.003387242
0.3690001,-0.003387242
0.3680001,-0.003387242
0.3670001,-0.003390307
0.3660001,-0.003390307
0.3650001,-0.003393373
0.3640001,-0.003396438
0.3630001,-0.003393373
0.3620001,-0.003396438
0.3610001,-0.003396438
0.3600001,-0.003393373
0.3590001,-0.003399503
0.3580001,-0.003399503
0.3570001,-0.003396438
0.3560001,-0.003399503
0.3550001,-0.003396438
0.3540001,-0.003396438
0.3530001,-0.003396438
0.3520001,-0.003393373
0.3510001,-0.003396438
0.3500001,-0.003393373
0.3490001,-0.003393373
0.3480001,-0.003393373
0.3470001,-0.003390307
0.3460001,-0.003390307
0.3450001,-0.003390307
0.3440001,-0.003390307
0.3430001,-0.003390307
0.3420001,-0.003384176
0.3410001,-0.003384176
0.3400001,-0.003384176
0.3390001,-0.00338111
0.3380001,-0.003384176
