EXPID. 0611
[电化学]: CV : 0 >> 0.7 >> 0 >> 0(V) @ 0.01(V/s) X 10(Seg)
起始电位 (V),0
上限电位 (V),0.7
下限电位 (V),0
终止电位 (V),0
扫速 (V/s),0.01
电解液 信息:
KOH,1
0.001,0.000221033
0.002,0.0002283901
0.003,0.0002345211
0.004,0.0002412652
0.005,0.0002470896
0.006,0.0002532206
0.007,0.0002596581
0.008,0.0002660956
0.009,0.0002725331
0.01,0.0002792772
0.011,0.0002857147
0.012,0.0002930718
0.013,0.000300429
0.014,0.0003077862
0.015,0.0003157564
0.016,0.0003234201
0.017,0.0003313904
0.018,0.0003399737
0.019,0.0003488636
0.02,0.0003580601
0.021,0.0003672565
0.022,0.0003767595
0.023,0.0003871821
0.024,0.0003976048
0.025,0.000408334
0.026,0.0004196763
0.027,0.0004316316
0.028,0.0004442001
0.029,0.0004567686
0.03,0.0004699502
0.031,0.0004843579
0.032,0.0004984592
0.033,0.00051348
0.034,0.0005297271
0.035,0.0005459742
0.036,0.0005637539
0.037,0.0005818403
0.038,0.0006002332
0.039,0.0006207719
0.04,0.0006410041
0.041,0.0006624625
0.042,0.0006857602
0.043,0.0007090578
0.044,0.0007341948
0.045,0.0007602514
0.046,0.0007872276
0.047,0.0008160432
0.048,0.0008454719
0.049,0.0008767397
0.05,0.0009095404
0.051,0.0009438738
0.052,0.0009800465
0.053,0.001016832
0.054,0.001055457
0.055,0.001096841
0.056,0.001138532
0.057,0.001182981
0.058,0.001229883
0.059,0.001276785
0.06,0.001327672
0.061,0.001379172
0.062,0.001432512
0.063,0.001488917
0.064,0.001546854
0.065,0.001606631
0.066,0.001669167
0.067,0.001732929
0.068,0.001800063
0.069,0.001868117
0.07,0.001938929
0.071,0.002012501
0.072,0.002086073
0.073,0.002163936
0.074,0.002243332
0.075,0.002323647
0.076,0.002408562
0.077,0.002492556
0.078,0.002579615
0.079,0.00267066
0.08,0.002760479
0.081,0.002854283
0.082,0.002950232
0.083,0.003080927
0.084,0.003179022
0.085,0.003280183
0.086,0.003381344
0.087,0.00348557
0.088,0.003589797
0.089,0.003697089
0.09,0.003807446
0.091,0.003917804
0.092,0.004031226
0.093,0.004141584
0.094,0.004258072
0.095,0.004377626
0.096,0.004494114
0.097,0.004613668
0.098,0.004736287
0.099,0.004855841
0.1,0.004981526
0.101,0.005104146
0.102,0.005232896
0.103,0.005364711
0.104,0.005493461
0.105,0.005625277
0.106,0.005757092
0.107,0.005888909
0.108,0.006026856
0.109,0.006164802
0.11,0.006305814
0.111,0.006446826
0.112,0.006587839
0.113,0.006734982
0.114,0.00687906
0.115,0.007032333
0.116,0.007188674
0.117,0.007335817
0.118,0.007498287
0.119,0.007657692
0.12,0.007817097
0.121,0.007988765
0.122,0.008157366
0.123,0.008325968
0.124,0.008506831
0.125,0.008684629
0.126,0.008868557
0.127,0.009055552
0.128,0.009245612
0.129,0.009444868
0.13,0.009644125
0.131,0.009849512
0.132,0.01005796
0.133,0.01027255
0.134,0.0104902
0.135,0.01071704
0.136,0.01094389
0.137,0.01117687
0.138,0.01140984
0.139,0.01164895
0.14,0.01190032
0.141,0.01214249
0.142,0.0123908
0.143,0.01264523
0.144,0.01289354
0.145,0.01315104
0.146,0.0134116
0.147,0.01366604
0.148,0.01392967
0.149,0.01418717
0.15,0.01444467
0.151,0.0147083
0.152,0.01496887
0.153,0.0152325
0.154,0.01549613
0.155,0.01575976
0.156,0.01602339
0.157,0.01628396
0.158,0.01654759
0.159,0.01681122
0.16,0.01707179
0.161,0.01733848
0.162,0.01759599
0.163,0.01785655
0.164,0.01812631
0.165,0.01838381
0.166,0.01864745
0.167,0.01891414
0.168,0.01917471
0.169,0.01944141
0.17,0.0197081
0.171,0.01996867
0.172,0.02023843
0.173,0.02050513
0.174,0.02076876
0.175,0.02103852
0.176,0.02130522
0.177,0.02157498
0.178,0.02184168
0.179,0.02210838
0.18,0.02237814
0.181,0.02264484
0.182,0.0229146
0.183,0.02318436
0.184,0.02345106
0.185,0.02372082
0.186,0.02398752
0.187,0.02425728
0.188,0.02452704
0.189,0.02479067
0.19,0.0250635
0.191,0.0253302
0.192,0.02559383
0.193,0.02586666
0.194,0.02613335
0.195,0.02639699
0.196,0.02666675
0.197,0.02692731
0.198,0.02719401
0.199,0.02746378
0.2,0.02772128
0.201,0.02798797
0.202,0.02825161
0.203,0.02850911
0.204,0.02877274
0.205,0.02903943
0.206,0.02929693
0.207,0.02956057
0.208,0.029815
0.209,0.0300725
0.21,0.03111582
0.211,0.03136105
0.212,0.03163695
0.213,0.03188219
0.214,0.03212743
0.215,0.03237266
0.216,0.03264856
0.217,0.0328938
0.218,0.03313904
0.219,0.03338427
0.22,0.03366017
0.221,0.03387475
0.222,0.03415065
0.223,0.03439588
0.224,0.03461047
0.225,0.03488636
0.226,0.0351316
0.227,0.03534618
0.228,0.03562208
0.229,0.03583666
0.23,0.0360819
0.231,0.03632713
0.232,0.03657238
0.233,0.03678696
0.234,0.0370322
0.235,0.03724678
0.236,0.03749202
0.237,0.03773726
0.238,0.03795184
0.239,0.03819708
0.24,0.03844232
0.241,0.0386569
0.242,0.03890214
0.243,0.03911673
0.244,0.03936196
0.245,0.03957655
0.246,0.03979113
0.247,0.04000572
0.248,0.04025095
0.249,0.04046554
0.25,0.04068012
0.251,0.04089471
0.252,0.04113995
0.253,0.04135453
0.254,0.04156911
0.255,0.0417837
0.256,0.04199828
0.257,0.04221286
0.258,0.04242745
0.259,0.04264203
0.26,0.04285662
0.261,0.0430712
0.262,0.04325513
0.263,0.04346971
0.264,0.0436843
0.265,0.04389888
0.266,0.04408281
0.267,0.04429739
0.268,0.04451197
0.269,0.04469591
0.27,0.04491049
0.271,0.04512507
0.272,0.045309
0.273,0.04549293
0.274,0.04570751
0.275,0.04589145
0.276,0.04610603
0.277,0.04628995
0.278,0.04647389
0.279,0.04665781
0.28,0.0468724
0.281,0.04705633
0.282,0.04724025
0.283,0.04739353
0.284,0.04760811
0.285,0.04776139
0.286,0.04794532
0.287,0.04812925
0.288,0.04828252
0.289,0.04846645
0.29,0.04865038
0.291,0.04880365
0.292,0.04895693
0.293,0.0491102
0.294,0.04926347
0.295,0.0494474
0.296,0.04960068
0.297,0.04975395
0.298,0.04990723
0.299,0.05002984
0.3,0.05018312
0.301,0.05030574
0.302,0.05045901
0.303,0.05058163
0.304,0.05070425
0.305,0.05085753
0.306,0.05098015
0.307,0.05110276
0.308,0.05122538
0.309,0.05131735
0.31,0.05143997
0.311,0.05156258
0.312,0.05162389
0.313,0.05171586
0.314,0.05180782
0.315,0.05186913
0.316,0.0519611
0.317,0.05199176
0.318,0.05205306
0.319,0.05211437
0.32,0.05217568
0.321,0.05220634
0.322,0.05226765
0.323,0.0522983
0.324,0.05235961
0.325,0.05239027
0.326,0.05242092
0.327,0.05245158
0.328,0.05248223
0.329,0.05248223
0.33,0.05251288
0.331,0.05251288
0.332,0.05251288
0.333,0.05248223
0.334,0.05248223
0.335,0.05245158
0.336,0.05239027
0.337,0.05235961
0.338,0.0522983
0.339,0.05223699
0.34,0.05217568
0.341,0.05208372
0.342,0.05202241
0.343,0.05189979
0.344,0.05180782
0.345,0.0516852
0.346,0.05156258
0.347,0.05140931
0.348,0.05125604
0.349,0.05107211
0.35,0.05088818
0.351,0.05070425
0.352,0.05052032
0.353,0.05030574
0.354,0.05009115
0.355,0.04987657
0.356,0.04963133
0.357,0.04935544
0.358,0.0491102
0.359,0.04880365
0.36,0.04852776
0.361,0.04822121
0.362,0.04791466
0.363,0.04760811
0.364,0.04730156
0.365,0.04696436
0.366,0.04662716
0.367,0.04628995
0.368,0.04595275
0.369,0.04561555
0.37,0.04524769
0.371,0.04487984
0.372,0.04451197
0.373,0.04411346
0.374,0.04371495
0.375,0.04328578
0.376,0.04282596
0.377,0.04236614
0.378,0.04184501
0.379,0.04129322
0.38,0.04068012
0.381,0.04000572
0.382,0.03927
0.383,0.03841167
0.384,0.03743071
0.385,0.03635779
0.386,0.0351316
0.387,0.03378279
0.388,0.03237266
0.389,0.03096254
0.39,0.02955242
0.391,0.02823426
0.392,0.02694676
0.393,0.02575122
0.394,0.02464765
0.395,0.02360538
0.396,0.02262443
0.397,0.02173544
0.398,0.0208771
0.399,0.02011073
0.4,0.01937502
0.401,0.01870061
0.402,0.01805686
0.403,0.01744376
0.404,0.01689198
0.405,0.01637085
0.406,0.01588037
0.407,0.01542055
0.408,0.01499138
0.409,0.01459287
0.41,0.01422501
0.411,0.01385715
0.412,0.01351995
0.413,0.0132134
0.414,0.01240612
0.415,0.01213943
0.416,0.01188499
0.417,0.01164588
0.418,0.0114221
0.419,0.01121059
0.42,0.01101133
0.421,0.01082127
0.422,0.01064347
0.423,0.01047487
0.424,0.0103124
0.425,0.01016219
0.426,0.01001505
0.427,0.009880167
0.428,0.009751417
0.429,0.009625732
0.43,0.009509244
0.431,0.009395821
0.432,0.009285463
0.433,0.009187368
0.434,0.009089272
0.435,0.008994242
0.436,0.008911475
0.437,0.008822575
0.438,0.008745939
0.439,0.008672367
0.44,0.008592664
0.441,0.008525223
0.442,0.008457784
0.443,0.008393408
0.444,0.008335164
0.445,0.008273854
0.446,0.00821561
0.447,0.008166562
0.448,0.008114449
0.449,0.008068467
0.45,0.00802555
0.451,0.007976502
0.452,0.007939717
0.453,0.0078968
0.454,0.007860013
0.455,0.007826294
0.456,0.007792573
0.457,0.007761919
0.458,0.007731264
0.459,0.007703674
0.46,0.00767915
0.461,0.007654627
0.462,0.0076393
0.463,0.007617841
0.464,0.007599448
0.465,0.007587186
0.466,0.007571859
0.467,0.007559597
0.468,0.007556531
0.469,0.007544269
0.47,0.007541204
0.471,0.007541204
0.472,0.007535073
0.473,0.007541204
0.474,0.0075504
0.475,0.007553466
0.476,0.007568793
0.477,0.007581055
0.478,0.007596382
0.479,0.007617841
0.48,0.0076393
0.481,0.007666889
0.482,0.007697543
0.483,0.007728198
0.484,0.00776805
0.485,0.007804835
0.486,0.007847751
0.487,0.0078968
0.488,0.007951979
0.489,0.008010223
0.49,0.008071532
0.491,0.008135907
0.492,0.008206413
0.493,0.008279985
0.494,0.008359687
0.495,0.008448587
0.496,0.008540551
0.497,0.008635581
0.498,0.008739808
0.499,0.0088471
0.5,0.008957457
0.501,0.009077011
0.502,0.009202695
0.503,0.009334511
0.504,0.009463261
0.505,0.009610405
0.506,0.009757548
0.507,0.009907756
0.508,0.01007023
0.509,0.01023576
0.51,0.01040436
0.511,0.01058216
0.512,0.01076916
0.513,0.01095922
0.514,0.01114928
0.515,0.01134853
0.516,0.01155085
0.517,0.01175931
0.518,0.01197696
0.519,0.01219767
0.52,0.01241839
0.521,0.01265136
0.522,0.01288434
0.523,0.01312345
0.524,0.01337175
0.525,0.01362006
0.526,0.01387756
0.527,0.01413506
0.528,0.01439256
0.529,0.01466538
0.53,0.01493208
0.531,0.01520797
0.532,0.01549307
0.533,0.01576896
0.534,0.01605712
0.535,0.0163514
0.536,0.01663649
0.537,0.01693691
0.538,0.01724039
0.539,0.01753774
0.54,0.01785042
0.541,0.01816004
0.542,0.01846965
0.543,0.01878846
0.544,0.01910727
0.545,0.01942914
0.546,0.01975715
0.547,0.02008516
0.548,0.02041623
0.549,0.02074424
0.55,0.02108451
0.551,0.02142171
0.552,0.02175891
0.553,0.02210531
0.554,0.02244865
0.555,0.02279505
0.556,0.02315064
0.557,0.02349704
0.558,0.02385264
0.559,0.02420823
0.56,0.02456076
0.561,0.02492556
0.562,0.02528422
0.563,0.02564595
0.564,0.02601687
0.565,0.02638166
0.566,0.02674952
0.567,0.02712044
0.568,0.0274883
0.569,0.02786229
0.57,0.02824241
0.571,0.0286164
0.572,0.02899345
0.573,0.02937357
0.574,0.02975062
0.575,0.03013381
0.576,0.03129975
0.577,0.0316676
0.578,0.03206612
0.579,0.03246463
0.58,0.03283248
0.581,0.033231
0.582,0.03362951
0.583,0.03402802
0.584,0.03442654
0.585,0.03482505
0.586,0.03522356
0.587,0.03562208
0.588,0.03605124
0.589,0.0364191
0.59,0.03684827
0.591,0.03724678
0.592,0.0376453
0.593,0.03807446
0.594,0.03847298
0.595,0.03890214
0.596,0.03933131
0.597,0.03972982
0.598,0.04012834
0.599,0.0405575
0.6,0.04095602
0.601,0.04138518
0.602,0.04181435
0.603,0.04221286
0.604,0.04264203
0.605,0.0430712
0.606,0.04350037
0.607,0.04392953
0.608,0.04432805
0.609,0.04475721
0.61,0.04518638
0.611,0.04561555
0.612,0.04604472
0.613,0.04647389
0.614,0.04690305
0.615,0.04733222
0.616,0.04776139
0.617,0.04822121
0.618,0.04865038
0.619,0.04907954
0.62,0.04950871
0.621,0.04993788
0.622,0.05036705
0.623,0.05079622
0.624,0.05125604
0.625,0.0516852
0.626,0.05211437
0.627,0.05257419
0.628,0.05300336
0.629,0.05343253
0.63,0.05389235
0.631,0.05435218
0.632,0.05478134
0.633,0.05521051
0.634,0.05567033
0.635,0.0560995
0.636,0.05655932
0.637,0.05701914
0.638,0.05744831
0.639,0.05790814
0.64,0.0583373
0.641,0.05879712
0.642,0.05925695
0.643,0.05968611
0.644,0.06014594
0.645,0.06057511
0.646,0.06103493
0.647,0.06149475
0.648,0.06195457
0.649,0.0624144
0.65,0.06287422
0.651,0.06333404
0.652,0.06376321
0.653,0.06422303
0.654,0.06468286
0.655,0.06514268
0.656,0.06557184
0.657,0.06603166
0.658,0.06649148
0.659,0.0669513
0.66,0.06741113
0.661,0.0678403
0.662,0.06830012
0.663,0.06875994
0.664,0.06921976
0.665,0.06967959
0.666,0.07017007
0.667,0.07059924
0.668,0.07108971
0.669,0.07151888
0.67,0.0719787
0.671,0.07243852
0.672,0.07289835
0.673,0.07338882
0.674,0.07384864
0.675,0.07430847
0.676,0.07476829
0.677,0.07522812
0.678,0.07568794
0.679,0.07614776
0.68,0.07660758
0.681,0.0770674
0.682,0.07755788
0.683,0.0780177
0.684,0.07847752
0.685,0.07893734
0.686,0.07939716
0.687,0.07985699
0.688,0.08031681
0.689,0.08077663
0.69,0.08123646
0.691,0.08169628
0.692,0.08215611
0.693,0.08264658
0.694,0.0831064
0.695,0.08356623
0.696,0.08402605
0.697,0.08448587
0.698,0.08497635
0.699,0.08543617
0.7,0.08555879
0.6990001,0.08509897
0.6980001,0.08463915
0.6970001,0.08417932
0.6960001,0.08375015
0.6950001,0.08329033
0.6940001,0.08283051
0.6930001,0.08240134
0.6920001,0.08194152
0.6910001,0.08151235
0.6900001,0.08108319
0.6890001,0.08062336
0.6880001,0.0801942
0.6870001,0.07976502
0.6860001,0.0793052
0.6850001,0.07887604
0.6840001,0.07841621
0.6830001,0.07798705
0.6820001,0.07752723
0.6810001,0.0770674
0.6800001,0.07663824
0.6790001,0.07620906
0.6780001,0.07574924
0.6770001,0.07532008
0.6760001,0.07486025
0.6750001,0.07443108
0.6740001,0.07397126
0.6730001,0.0735421
0.6720001,0.07311293
0.6710001,0.07265311
0.6700001,0.07222394
0.6690001,0.07179477
0.6680001,0.07133495
0.6670001,0.07090578
0.6660001,0.07047661
0.6650001,0.07001679
0.6640001,0.06958763
0.6630001,0.0691278
0.6620001,0.06869864
0.6610001,0.06826947
0.6600001,0.06780964
0.6590001,0.06738048
0.6580001,0.0669513
0.6570001,0.06652214
0.6560001,0.06606232
0.6550001,0.06563315
0.6540001,0.06520399
0.6530001,0.06477482
0.6520001,0.06434565
0.6510001,0.06388583
0.6500001,0.06345665
0.6490001,0.06302749
0.6480001,0.06259833
0.6470001,0.06216915
0.6460001,0.06173999
0.6450001,0.06128017
0.6440001,0.060851
0.6430001,0.06042183
0.6420001,0.05999266
0.6410001,0.0595635
0.6400001,0.05913433
0.6390001,0.05870516
0.6380001,0.05827599
0.6370001,0.05784683
0.6360001,0.05741766
0.6350001,0.05698849
0.6340001,0.05655932
0.6330001,0.0560995
0.6320001,0.05570099
0.6310001,0.05527182
0.6300001,0.05484265
0.6290001,0.05441349
0.6280001,0.05398431
0.6270001,0.05355515
0.6260001,0.05312598
0.6250001,0.05269681
0.6240001,0.05226765
0.6230001,0.05183848
0.6220001,0.05140931
0.6210001,0.0510108
0.6200001,0.05058163
0.6190001,0.05015246
0.6180001,0.04975395
0.6170001,0.04932478
0.6160001,0.04889562
0.6150001,0.0484971
0.6140001,0.04806793
0.6130001,0.04763877
0.6120001,0.0472096
0.6110001,0.04681109
0.6100001,0.04638192
0.6090001,0.04595275
0.6080001,0.04555424
0.6070001,0.04512507
0.6060001,0.04472656
0.6050001,0.04429739
0.6040001,0.04389888
0.6030001,0.04346971
0.6020001,0.0430712
0.6010001,0.04264203
0.6000001,0.04224352
0.5990001,0.04184501
0.5980001,0.04141584
0.5970001,0.04101732
0.5960001,0.04058816
0.5950001,0.04018965
0.5940001,0.03979113
0.5930001,0.03936196
0.5920001,0.03896345
0.5910001,0.03856494
0.5900001,0.03816643
0.5890001,0.03773726
0.5880001,0.03733874
0.5870001,0.03694023
0.5860001,0.03654172
0.5850001,0.03614321
0.5840001,0.03574469
0.5830001,0.03534618
0.5820001,0.03494767
0.5810001,0.03454916
0.5800001,0.03415065
0.5790001,0.03378279
0.5780001,0.03338427
0.5770001,0.03298576
0.5760001,0.03258725
0.5750001,0.03218874
0.5740001,0.03182088
0.5730001,0.03142237
0.5720001,0.03102385
0.5710001,0.03065599
0.5700001,0.03025748
0.5690001,0.02985897
0.5680001,0.02949111
0.5670001,0.0290926
0.5660001,0.02872474
0.5650001,0.02832623
0.5640001,0.02795837
0.5630001,0.02755986
0.5620001,0.027192
0.5610001,0.02682414
0.5600001,0.02642563
0.5590001,0.02605777
0.5580001,0.02568991
0.5570001,0.02532205
0.5560001,0.0249542
0.5550001,0.02458634
0.5540001,0.02421848
0.5530001,0.02385062
0.5520001,0.02348276
0.5510001,0.02311491
0.5500001,0.0227777
0.5490001,0.02237919
0.5480001,0.02204199
0.5470001,0.02167413
0.5460001,0.02130627
0.5450001,0.02096907
0.5440001,0.02060121
0.5430001,0.02026401
0.5420001,0.01989615
0.5410001,0.01955895
0.5400001,0.01922174
0.5390001,0.01888454
0.5380001,0.01851668
0.5370001,0.01817948
0.5360001,0.01787293
0.5350001,0.01750507
0.5340001,0.01716787
0.5330001,0.01686132
0.5320001,0.01652412
0.5310001,0.01618692
0.5300001,0.01588037
0.5290001,0.01554316
0.5280001,0.01520596
0.5270001,0.01489941
0.5260001,0.01456221
0.5250001,0.01425566
0.5240001,0.01391846
0.5230001,0.01361191
0.5220001,0.01330536
0.5210001,0.01248889
0.5200001,0.01218847
0.5190001,0.01188499
0.5180001,0.01158764
0.5170001,0.01129335
0.5160001,0.01099907
0.5150001,0.01071091
0.5140001,0.01041969
0.5130001,0.0101346
0.5120001,0.009846447
0.5110001,0.009564422
0.5100001,0.009291595
0.5090001,0.009018766
0.5080001,0.008745939
0.5070001,0.008479241
0.5060001,0.008212545
0.5050001,0.007948913
0.5040001,0.007691412
0.5030001,0.007430846
0.5020001,0.007179477
0.5010001,0.006928107
0.5000001,0.006676738
0.4990001,0.006434564
0.4980001,0.006189326
0.4970001,0.005953284
0.4960001,0.005720307
0.4950001,0.005484265
0.4940001,0.005257419
0.4930001,0.005033639
0.4920001,0.004809859
0.4910001,0.004595275
0.4900001,0.004377626
0.4890001,0.004166107
0.4880001,0.00396072
0.4870001,0.003755333
0.4860001,0.003559142
0.4850001,0.003362951
0.4840001,0.00316676
0.4830001,0.002979766
0.4820001,0.002792771
0.4810001,0.002611908
0.4800001,0.00243411
0.4790001,0.002256312
0.4780001,0.00208771
0.4770001,0.001919109
0.4760001,0.001753573
0.4750001,0.001600299
0.4740001,0.001437828
0.4730001,0.001284554
0.4720001,0.001108797
0.4710001,0.0009604275
0.4700001,0.0008215611
0.4690001,0.0006860667
0.4680001,0.0005496527
0.4670001,0.0004209024
0.4660001,0.0002936849
0.4650001,0.0001704525
0.4640001,5.273798E-05
0.4630001,-6.961594E-05
0.4620001,-0.0001802186
0.4610001,-0.0002902081
0.4600001,-0.0003975815
0.4590001,-0.0004953703
0.4580001,-0.0005956116
0.4570001,-0.0006900285
0.4560001,-0.0007810733
0.4550001,-0.0008748771
0.4540001,-0.0009585648
0.4530001,-0.001041639
0.4520001,-0.001123488
0.4510001,-0.001197059
0.4500001,-0.001274923
0.4490001,-0.001346348
0.4480001,-0.001414096
0.4470001,-0.001483989
0.4460001,-0.001545605
0.4450001,-0.001606301
0.4440001,-0.001667918
0.4430001,-0.00172187
0.4420001,-0.001777968
0.4410001,-0.001830388
0.4400001,-0.001878516
0.4390001,-0.00192879
0.4380001,-0.001972626
0.4370001,-0.002017383
0.4360001,-0.002060912
0.4350001,-0.002097698
0.4340001,-0.002139389
0.4330001,-0.002175255
0.4320001,-0.002208056
0.4310001,-0.002246987
0.4300001,-0.002276722
0.4290001,-0.002307377
0.4280001,-0.002341097
0.4270001,-0.002364702
0.4260001,-0.002393211
0.4250001,-0.002420493
0.4240001,-0.002442565
0.4230001,-0.002468928
0.4220001,-0.002491306
0.4210001,-0.002511232
0.4200001,-0.002532997
0.4190001,-0.00255047
0.4180001,-0.002570396
0.4170001,-0.002586643
0.4160001,-0.002603196
0.4150001,-0.002622202
0.4140001,-0.002634464
0.4130001,-0.002650098
0.4120001,-0.002665425
0.4110001,-0.002674929
0.4100001,-0.00269608
0.4090001,-0.002715393
0.4080001,-0.002720604
0.4070001,-0.002733173
0.4060001,-0.002740223
0.4050001,-0.00274758
0.4040001,-0.002759229
0.4030001,-0.002765667
0.4020001,-0.002774557
0.4010001,-0.002781607
0.4000001,-0.002786512
0.3990001,-0.002796015
0.3980001,-0.002800613
0.3970001,-0.002809503
0.3960001,-0.002817167
0.3950001,-0.002820232
0.3940001,-0.00282759
0.3930001,-0.002831881
0.3920001,-0.002835253
0.3910001,-0.00284445
0.3900001,-0.002846902
0.3890001,-0.002851194
0.3880001,-0.002858244
0.3870001,-0.002857631
0.3860001,-0.002863149
0.3850001,-0.002867747
0.3840001,-0.002868054
0.3830001,-0.002873878
0.3820001,-0.002875105
0.3810001,-0.002877557
0.3800001,-0.002882768
0.3790001,-0.002883381
0.3780001,-0.002888286
0.3770001,-0.002890738
0.3760001,-0.002891045
0.3750001,-0.00289595
0.3740001,-0.002895643
0.3730001,-0.002898402
0.3720001,-0.002901161
0.3710001,-0.002902081
0.3700001,-0.002906373
0.3690001,-0.002906066
0.3680001,-0.002905453
0.3670001,-0.00291097
0.3660001,-0.002908825
0.3650001,-0.002910358
0.3640001,-0.002914956
0.3630001,-0.00291189
0.3620001,-0.002914649
0.3610001,-0.002916489
0.3600001,-0.002914343
0.3590001,-0.002918021
0.3580001,-0.002920167
0.3570001,-0.002920167
0.3560001,-0.00292078
0.3550001,-0.002919248
0.3540001,-0.002921393
0.3530001,-0.002921393
0.3520001,-0.002921393
0.3510001,-0.002924765
0.3500001,-0.0029217
0.3490001,-0.002923233
0.3480001,-0.002925992
0.3470001,-0.002922313
0.3460001,-0.002925992
0.3450001,-0.002927524
0.3440001,-0.002925072
0.3430001,-0.002929364
0.3420001,-0.002928138
0.3410001,-0.002927524
0.3400001,-0.002931203
