EXPID. 1281
[电化学]: CV : 0 >> 0.7 >> 0 >> 0(V) @ 0.01(V/s) X 10(Seg)
起始电位 (V),0
上限电位 (V),0.7
下限电位 (V),0
终止电位 (V),0
扫速 (V/s),0.01
电解液 信息:
KOH,1
0.001,1.326752E-05
0.002,1.456422E-05
0.003,1.54808E-05
0.004,1.636979E-05
0.005,1.719441E-05
0.006,1.796997E-05
0.007,1.885897E-05
0.008,1.962533E-05
0.009,2.039477E-05
0.01,2.109064E-05
0.011,2.174971E-05
0.012,2.254981E-05
0.013,2.357473E-05
0.014,2.418782E-05
0.015,2.492354E-05
0.016,2.568991E-05
0.017,2.639497E-05
0.018,2.728396E-05
0.019,2.801968E-05
0.02,2.884736E-05
0.021,2.958307E-05
0.022,3.025748E-05
0.023,3.111581E-05
0.024,3.188219E-05
0.025,3.270986E-05
0.026,3.359886E-05
0.027,3.442654E-05
0.028,3.537684E-05
0.029,3.623517E-05
0.03,3.694023E-05
0.031,3.801315E-05
0.032,3.881018E-05
0.033,3.969917E-05
0.034,4.077208E-05
0.035,4.169173E-05
0.036,4.27953E-05
0.037,4.380691E-05
0.038,4.478787E-05
0.039,4.59221E-05
0.04,4.68724E-05
0.041,4.791466E-05
0.042,4.901823E-05
0.043,5.012181E-05
0.044,5.137865E-05
0.045,5.254354E-05
0.046,5.370842E-05
0.047,5.51492E-05
0.048,5.631408E-05
0.049,5.760158E-05
0.05,5.89504E-05
0.051,6.020725E-05
0.052,6.170933E-05
0.053,6.302749E-05
0.054,6.43763E-05
0.055,6.59397E-05
0.056,6.731917E-05
0.057,6.885191E-05
0.058,7.04153E-05
0.059,7.191739E-05
0.06,7.366471E-05
0.061,7.535073E-05
0.062,7.694478E-05
0.063,7.878407E-05
0.064,8.065401E-05
0.065,8.243199E-05
0.066,8.445521E-05
0.067,8.644777E-05
0.068,8.85323E-05
0.069,9.07701E-05
0.07,9.300791E-05
0.071,9.539899E-05
0.072,9.77594E-05
0.073,0.0001002731
0.074,0.0001030014
0.075,0.000105607
0.076,0.0001085805
0.077,0.0001114315
0.078,0.0001143743
0.079,0.0001177157
0.08,0.0001208425
0.081,0.0001242145
0.082,0.0001278931
0.083,0.0001314491
0.084,0.0001354035
0.085,0.000139266
0.086,0.0001432512
0.087,0.0001475428
0.088,0.0001518652
0.089,0.0001564021
0.09,0.0001611229
0.091,0.0001658131
0.092,0.0001709325
0.093,0.0001760825
0.094,0.0001812325
0.095,0.000186781
0.096,0.0001923908
0.097,0.0001982153
0.098,0.0002041316
0.099,0.0002101706
0.1,0.0002167308
0.101,0.0002231683
0.102,0.0002300656
0.103,0.0002369936
0.104,0.0002440136
0.105,0.0002513707
0.106,0.0002589731
0.107,0.0002665755
0.108,0.0002747297
0.109,0.0002828839
0.11,0.0002912833
0.111,0.000303801
0.112,0.0003123844
0.113,0.0003215808
0.114,0.0003310838
0.115,0.0003408933
0.116,0.0003507029
0.117,0.0003611255
0.118,0.0003715482
0.119,0.0003822774
0.12,0.0003933131
0.121,0.0004049619
0.122,0.0004166108
0.123,0.0004285662
0.124,0.0004411346
0.125,0.0004533966
0.126,0.0004662716
0.127,0.0004797597
0.128,0.0004929413
0.129,0.0005067359
0.13,0.0005208372
0.131,0.0005349384
0.132,0.0005499593
0.133,0.0005646736
0.134,0.0005796945
0.135,0.000595635
0.136,0.0006112689
0.137,0.0006272094
0.138,0.0006434565
0.139,0.0006597036
0.14,0.0006765637
0.141,0.0006931173
0.142,0.000710284
0.143,0.0007277572
0.144,0.000744924
0.145,0.0007623972
0.146,0.000780177
0.147,0.0007979569
0.148,0.0008163497
0.149,0.0008341296
0.15,0.0008525224
0.151,0.0008712219
0.152,0.0008893082
0.153,0.0009080077
0.154,0.0009270137
0.155,0.0009454066
0.156,0.0009647191
0.157,0.0009834185
0.158,0.001002425
0.159,0.001022044
0.16,0.001041356
0.161,0.001060975
0.162,0.001080901
0.163,0.00110052
0.164,0.001121365
0.165,0.001141291
0.166,0.001162136
0.167,0.001183595
0.168,0.001204746
0.169,0.001226511
0.17,0.001248889
0.171,0.001270961
0.172,0.001294565
0.173,0.001317556
0.174,0.001341467
0.175,0.001366604
0.176,0.001391128
0.177,0.001416878
0.178,0.001443241
0.179,0.001468991
0.18,0.001497807
0.181,0.001525396
0.182,0.001554211
0.183,0.001583947
0.184,0.001613375
0.185,0.00164495
0.186,0.001676831
0.187,0.001708712
0.188,0.001742739
0.189,0.001775846
0.19,0.001810486
0.191,0.001846658
0.192,0.001882831
0.193,0.001919923
0.194,0.001959162
0.195,0.001996867
0.196,0.002037638
0.197,0.002077796
0.198,0.002118567
0.199,0.002162403
0.2,0.002205013
0.201,0.002249156
0.202,0.002294832
0.203,0.002339895
0.204,0.002388023
0.205,0.00243707
0.206,0.002485505
0.207,0.002536699
0.208,0.002586666
0.209,0.002639392
0.21,0.002693345
0.211,0.002746378
0.212,0.002803396
0.213,0.002859188
0.214,0.002916205
0.215,0.002976596
0.216,0.003068665
0.217,0.003126909
0.218,0.003188219
0.219,0.003252594
0.22,0.003316969
0.221,0.003384409
0.222,0.003448785
0.223,0.003516225
0.224,0.003586731
0.225,0.003657237
0.226,0.003730809
0.227,0.003801315
0.228,0.003877952
0.229,0.003951524
0.23,0.004028161
0.231,0.004107863
0.232,0.0041845
0.233,0.004267268
0.234,0.004350036
0.235,0.004429739
0.236,0.004515572
0.237,0.004601406
0.238,0.004687239
0.239,0.004773073
0.24,0.004861972
0.241,0.004947806
0.242,0.005036704
0.243,0.005125604
0.244,0.005220633
0.245,0.005309533
0.246,0.005404562
0.247,0.005496527
0.248,0.005585426
0.249,0.005680456
0.25,0.005775486
0.251,0.005864385
0.252,0.00596248
0.253,0.006051379
0.254,0.006143344
0.255,0.006238374
0.256,0.006330338
0.257,0.006422303
0.258,0.006511202
0.259,0.006600101
0.26,0.006692065
0.261,0.006777898
0.262,0.006863732
0.263,0.006952631
0.264,0.007032333
0.265,0.007118167
0.266,0.00719787
0.267,0.007274507
0.268,0.007354209
0.269,0.007430846
0.27,0.007501352
0.271,0.007574924
0.272,0.007642365
0.273,0.00770674
0.274,0.007774181
0.275,0.007832425
0.276,0.007893735
0.277,0.007948913
0.278,0.008001027
0.279,0.008050074
0.28,0.008096056
0.281,0.008142038
0.282,0.008178824
0.283,0.00821561
0.284,0.008252396
0.285,0.008279985
0.286,0.008304508
0.287,0.008329033
0.288,0.008344361
0.289,0.008359687
0.29,0.008371949
0.291,0.008375015
0.292,0.00837808
0.293,0.008371949
0.294,0.008365818
0.295,0.008356622
0.296,0.008335164
0.297,0.00831677
0.298,0.008292247
0.299,0.008258527
0.3,0.008224807
0.301,0.00818189
0.302,0.008138973
0.303,0.008086859
0.304,0.008028615
0.305,0.007973436
0.306,0.007905996
0.307,0.007838556
0.308,0.007771115
0.309,0.007688347
0.31,0.007605579
0.311,0.007522811
0.312,0.007427781
0.313,0.007341947
0.314,0.007246917
0.315,0.007148822
0.316,0.007050727
0.317,0.0069465
0.318,0.006845339
0.319,0.006744178
0.32,0.006639952
0.321,0.006541857
0.322,0.006440695
0.323,0.006336469
0.324,0.006241439
0.325,0.006140279
0.326,0.006045248
0.327,0.005956349
0.328,0.005864385
0.329,0.005775486
0.33,0.005692718
0.331,0.005613015
0.332,0.005536378
0.333,0.005459741
0.334,0.005389235
0.335,0.005318729
0.336,0.005254354
0.337,0.00519611
0.338,0.0051348
0.339,0.005079621
0.34,0.005027508
0.341,0.004975395
0.342,0.004929413
0.343,0.00488343
0.344,0.004837448
0.345,0.004797597
0.346,0.004757746
0.347,0.004717894
0.348,0.004687239
0.349,0.004650454
0.35,0.004616733
0.351,0.004586079
0.352,0.004552358
0.353,0.004524769
0.354,0.004500245
0.355,0.004472656
0.356,0.004448132
0.357,0.004420543
0.358,0.004399084
0.359,0.004380691
0.36,0.004356168
0.361,0.004334709
0.362,0.004316316
0.363,0.004294858
0.364,0.00427953
0.365,0.004261137
0.366,0.004242745
0.367,0.004224352
0.368,0.004209024
0.369,0.004193697
0.37,0.004178369
0.371,0.004163042
0.372,0.00415078
0.373,0.004132387
0.374,0.00411706
0.375,0.004107863
0.376,0.004086405
0.377,0.004077209
0.378,0.004064947
0.379,0.004049619
0.38,0.004040423
0.381,0.004025095
0.382,0.004012833
0.383,0.004003637
0.384,0.003988309
0.385,0.003976048
0.386,0.003966851
0.387,0.003951524
0.388,0.003942328
0.389,0.003930065
0.39,0.003917804
0.391,0.003905541
0.392,0.00389328
0.393,0.003884083
0.394,0.003871821
0.395,0.003859559
0.396,0.003850363
0.397,0.003838101
0.398,0.003828905
0.399,0.003816642
0.4,0.003801315
0.401,0.003795184
0.402,0.003782922
0.403,0.00377066
0.404,0.003761464
0.405,0.003746136
0.406,0.00373694
0.407,0.003727744
0.408,0.003712416
0.409,0.003709351
0.41,0.00370322
0.411,0.003687892
0.412,0.003678696
0.413,0.003663369
0.414,0.003654172
0.415,0.003644975
0.416,0.003632714
0.417,0.003623517
0.418,0.003614321
0.419,0.003598993
0.42,0.003592863
0.421,0.0035806
0.422,0.003568338
0.423,0.003562207
0.424,0.00354688
0.425,0.003540749
0.426,0.003528487
0.427,0.003519291
0.428,0.00351316
0.429,0.003500898
0.43,0.003491701
0.431,0.003482505
0.432,0.003470243
0.433,0.003464112
0.434,0.00345185
0.435,0.003439588
0.436,0.003436523
0.437,0.003427326
0.438,0.003415064
0.439,0.003411999
0.44,0.003399737
0.441,0.003387475
0.442,0.003387475
0.443,0.003375213
0.444,0.003369082
0.445,0.003359886
0.446,0.003353755
0.447,0.003347624
0.448,0.003338427
0.449,0.003335362
0.45,0.003329231
0.451,0.003320034
0.452,0.003316969
0.453,0.003310838
0.454,0.003304707
0.455,0.003301642
0.456,0.00329551
0.457,0.003292445
0.458,0.003289379
0.459,0.003283249
0.46,0.003286314
0.461,0.003283249
0.462,0.003283249
0.463,0.003286314
0.464,0.003283249
0.465,0.003286314
0.466,0.003286314
0.467,0.003289379
0.468,0.00329551
0.469,0.003298576
0.47,0.003304707
0.471,0.003313903
0.472,0.003320034
0.473,0.003335362
0.474,0.003347624
0.475,0.003359886
0.476,0.003381344
0.477,0.003396671
0.478,0.00341813
0.479,0.003442654
0.48,0.003467177
0.481,0.003500898
0.482,0.003531553
0.483,0.003568338
0.484,0.003611255
0.485,0.003651106
0.486,0.003700154
0.487,0.003758398
0.488,0.003813577
0.489,0.003881018
0.49,0.003954589
0.491,0.004028161
0.492,0.004113995
0.493,0.004202893
0.494,0.004300989
0.495,0.004405215
0.496,0.004515572
0.497,0.004638192
0.498,0.004766942
0.499,0.004901823
0.5,0.005048967
0.501,0.005199175
0.502,0.00535858
0.503,0.005536378
0.504,0.005711111
0.505,0.005901171
0.506,0.006097361
0.507,0.006302749
0.508,0.006520398
0.509,0.006738048
0.51,0.006971024
0.511,0.007210132
0.512,0.007461501
0.513,0.007715936
0.514,0.007979568
0.515,0.008240134
0.516,0.008522158
0.517,0.008804183
0.518,0.009089272
0.519,0.00938969
0.52,0.009690107
0.521,0.009993589
0.522,0.01030933
0.523,0.01062814
0.524,0.01095002
0.525,0.01128109
0.526,0.01161216
0.527,0.01194937
0.528,0.01228657
0.529,0.01263604
0.53,0.01298243
0.531,0.01333497
0.532,0.01369669
0.533,0.01405229
0.534,0.01441708
0.535,0.01478187
0.536,0.01514973
0.537,0.01552679
0.538,0.01590077
0.539,0.01627783
0.54,0.01666101
0.541,0.01704113
0.542,0.01743045
0.543,0.0178167
0.544,0.01820602
0.545,0.01860146
0.546,0.01899691
0.547,0.01939236
0.548,0.01979394
0.549,0.02018939
0.55,0.02059709
0.551,0.02099867
0.552,0.02140025
0.553,0.02181409
0.554,0.02222487
0.555,0.02262644
0.556,0.02304948
0.557,0.02346025
0.558,0.0238741
0.559,0.024291
0.56,0.02470791
0.561,0.02512481
0.562,0.02554478
0.563,0.02597702
0.564,0.02639392
0.565,0.02682002
0.566,0.02724919
0.567,0.0276661
0.568,0.0280922
0.569,0.02852443
0.57,0.02895053
0.571,0.0293797
0.572,0.029815
0.573,0.03102385
0.574,0.03142237
0.575,0.03188219
0.576,0.03231135
0.577,0.03274052
0.578,0.03320035
0.579,0.03362951
0.58,0.03408933
0.581,0.0345185
0.582,0.03494767
0.583,0.03540749
0.584,0.03586731
0.585,0.03629648
0.586,0.03672565
0.587,0.03718547
0.588,0.0376453
0.589,0.03810512
0.59,0.03856494
0.591,0.03902476
0.592,0.03945393
0.593,0.03991375
0.594,0.04037357
0.595,0.04080274
0.596,0.04126256
0.597,0.04172239
0.598,0.04218221
0.599,0.04264203
0.6,0.0430712
0.601,0.04353102
0.602,0.0440215
0.603,0.04445067
0.604,0.04491049
0.605,0.04537031
0.606,0.04583013
0.607,0.04628995
0.608,0.04674978
0.609,0.0472096
0.61,0.04766942
0.611,0.04812925
0.612,0.04861972
0.613,0.04904889
0.614,0.04953937
0.615,0.04996854
0.616,0.05042836
0.617,0.05088818
0.618,0.05137866
0.619,0.05180782
0.62,0.0522983
0.621,0.05275812
0.622,0.05321795
0.623,0.05370842
0.624,0.05416824
0.625,0.05462807
0.626,0.05508789
0.627,0.05557837
0.628,0.05603819
0.629,0.05649801
0.63,0.05698849
0.631,0.05744831
0.632,0.05790814
0.633,0.05839861
0.634,0.05885844
0.635,0.05931826
0.636,0.05980873
0.637,0.06026856
0.638,0.06072838
0.639,0.06121886
0.64,0.06167868
0.641,0.06216915
0.642,0.06265964
0.643,0.06311946
0.644,0.06357928
0.645,0.06406976
0.646,0.06456023
0.647,0.06502005
0.648,0.06547987
0.649,0.06597035
0.65,0.06643017
0.651,0.06692065
0.652,0.06738048
0.653,0.0678403
0.654,0.06833078
0.655,0.0687906
0.656,0.06928107
0.657,0.06977155
0.658,0.07026203
0.659,0.07072186
0.66,0.07121233
0.661,0.07167216
0.662,0.07216263
0.663,0.07265311
0.664,0.07311293
0.665,0.07357275
0.666,0.07409389
0.667,0.07455371
0.668,0.07504418
0.669,0.075504
0.67,0.07599448
0.671,0.07648496
0.672,0.07694478
0.673,0.07743526
0.674,0.07792573
0.675,0.07838555
0.676,0.07887604
0.677,0.07936651
0.678,0.07985699
0.679,0.08031681
0.68,0.08077663
0.681,0.08126711
0.682,0.08175759
0.683,0.08221742
0.684,0.08270789
0.685,0.08319836
0.686,0.08365819
0.687,0.08414867
0.688,0.08460849
0.689,0.08512962
0.69,0.08558945
0.691,0.08607992
0.692,0.0865704
0.693,0.08703022
0.694,0.08755135
0.695,0.08801118
0.696,0.088471
0.697,0.08899213
0.698,0.08945195
0.699,0.08994243
0.7,0.09012636
0.6990001,0.08960523
0.6980001,0.08914541
0.6970001,0.08868558
0.6960001,0.08819511
0.6950001,0.08770462
0.6940001,0.0872448
0.6930001,0.08678498
0.6920001,0.08632516
0.6910001,0.08586534
0.6900001,0.0853442
0.6890001,0.08488438
0.6880001,0.08442456
0.6870001,0.08393408
0.6860001,0.08350492
0.6850001,0.08304509
0.6840001,0.08252396
0.6830001,0.0820948
0.6820001,0.08160432
0.6810001,0.0811445
0.6800001,0.08071532
0.6790001,0.08022485
0.6780001,0.07973437
0.6770001,0.0793052
0.6760001,0.07881473
0.6750001,0.07832425
0.6740001,0.07789508
0.6730001,0.0774046
0.6720001,0.07691412
0.6710001,0.0764543
0.6700001,0.07599448
0.6690001,0.07553466
0.6680001,0.07510549
0.6670001,0.07461502
0.6660001,0.07412454
0.6650001,0.07369537
0.6640001,0.07323555
0.6630001,0.07274507
0.6620001,0.0723159
0.6610001,0.07185608
0.6600001,0.0713656
0.6590001,0.07093643
0.6580001,0.07044595
0.6570001,0.06998613
0.6560001,0.06955697
0.6550001,0.06906649
0.6540001,0.06860667
0.6530001,0.06814685
0.6520001,0.06768703
0.6510001,0.06722721
0.6500001,0.06676738
0.6490001,0.06630756
0.6480001,0.06584774
0.6470001,0.06538791
0.6460001,0.06492809
0.6450001,0.06446826
0.6440001,0.06400844
0.6430001,0.06354862
0.6420001,0.06311946
0.6410001,0.06262898
0.6400001,0.06216915
0.6390001,0.06170933
0.6380001,0.06124951
0.6370001,0.06078969
0.6360001,0.06036052
0.6350001,0.05987004
0.6340001,0.05941022
0.6330001,0.05898106
0.6320001,0.05849057
0.6310001,0.05806141
0.6300001,0.05760158
0.6290001,0.05714176
0.6280001,0.05668194
0.6270001,0.05622212
0.6260001,0.0557623
0.6250001,0.05530247
0.6240001,0.05484265
0.6230001,0.05438283
0.6220001,0.05392301
0.6210001,0.05346319
0.6200001,0.05300336
0.6190001,0.05254354
0.6180001,0.05208372
0.6170001,0.05165455
0.6160001,0.05119473
0.6150001,0.05073491
0.6140001,0.05027508
0.6130001,0.04981526
0.6120001,0.0493861
0.6110001,0.04892627
0.6100001,0.04846645
0.6090001,0.04803728
0.6080001,0.04757746
0.6070001,0.04711764
0.6060001,0.04665781
0.6050001,0.04619799
0.6040001,0.04576882
0.6030001,0.045309
0.6020001,0.04487984
0.6010001,0.04442001
0.6000001,0.04399084
0.5990001,0.04353102
0.5980001,0.0430712
0.5970001,0.04264203
0.5960001,0.04218221
0.5950001,0.04172239
0.5940001,0.04129322
0.5930001,0.04083339
0.5920001,0.04040423
0.5910001,0.03997506
0.5900001,0.03951524
0.5890001,0.03908607
0.5880001,0.0386569
0.5870001,0.03819708
0.5860001,0.03776791
0.5850001,0.03733874
0.5840001,0.03690958
0.5830001,0.03644976
0.5820001,0.03602059
0.5810001,0.03559142
0.5800001,0.03516225
0.5790001,0.03473309
0.5780001,0.03430392
0.5770001,0.03387475
0.5760001,0.03344558
0.5750001,0.03301642
0.5740001,0.03258725
0.5730001,0.03215808
0.5720001,0.03172891
0.5710001,0.03129975
0.5700001,0.03087058
0.5690001,0.03044141
0.5680001,0.03001224
0.5670001,0.02961373
0.5660001,0.02918456
0.5650001,0.02875539
0.5640001,0.02835688
0.5630001,0.02792772
0.5620001,0.02749855
0.5610001,0.02710003
0.5600001,0.02667087
0.5590001,0.02627235
0.5580001,0.02587384
0.5570001,0.02544468
0.5560001,0.02504616
0.5550001,0.02464765
0.5540001,0.02424913
0.5530001,0.02381997
0.5520001,0.02345211
0.5510001,0.02302294
0.5500001,0.02262443
0.5490001,0.02222592
0.5480001,0.02182741
0.5470001,0.02142889
0.5460001,0.02103038
0.5450001,0.02063187
0.5440001,0.02026401
0.5430001,0.0198655
0.5420001,0.01946698
0.5410001,0.01909912
0.5400001,0.01873127
0.5390001,0.01836341
0.5380001,0.0179649
0.5370001,0.01759704
0.5360001,0.01722918
0.5350001,0.01686132
0.5340001,0.01649346
0.5330001,0.01612561
0.5320001,0.01575775
0.5310001,0.01538989
0.5300001,0.01502203
0.5290001,0.01465417
0.5280001,0.01431697
0.5270001,0.01394911
0.5260001,0.01358126
0.5250001,0.01324405
0.5240001,0.01240306
0.5230001,0.01207199
0.5220001,0.01173478
0.5210001,0.01140065
0.5200001,0.01107571
0.5190001,0.0107477
0.5180001,0.01041969
0.5170001,0.01010088
0.5160001,0.009785137
0.5150001,0.009475523
0.5140001,0.00916591
0.5130001,0.008859362
0.5120001,0.008549747
0.5110001,0.00824933
0.5100001,0.007961174
0.5090001,0.007669954
0.5080001,0.007381798
0.5070001,0.00710284
0.5060001,0.006823881
0.5050001,0.006551053
0.5040001,0.006284356
0.5030001,0.006017659
0.5020001,0.005760158
0.5010001,0.005502658
0.5000001,0.005251288
0.4990001,0.005009115
0.4980001,0.004770007
0.4970001,0.004533966
0.4960001,0.00430712
0.4950001,0.004080274
0.4940001,0.00386569
0.4930001,0.003648041
0.4920001,0.003439588
0.4910001,0.003243397
0.4900001,0.003044141
0.4890001,0.002851016
0.4880001,0.002670152
0.4870001,0.002486223
0.4860001,0.002314556
0.4850001,0.002145954
0.4840001,0.001983484
0.4830001,0.00183021
0.4820001,0.001676936
0.4810001,0.001532858
0.4800001,0.001391846
0.4790001,0.001256965
0.4780001,0.001098068
0.4770001,0.0009757549
0.4760001,0.000856201
0.4750001,0.0007473764
0.4740001,0.0006360994
0.4730001,0.0005334057
0.4720001,0.0004392953
0.4710001,0.0003430392
0.4700001,0.0002572057
0.4690001,0.0001729049
0.4680001,9.136306E-05
0.4670001,1.748492E-05
0.4660001,-5.910133E-05
0.4650001,-0.0001264193
0.4640001,-0.0001875757
0.4630001,-0.0002496517
0.4620001,-0.0003055661
0.4610001,-0.000359876
0.4600001,-0.0004101499
0.4590001,-0.0004539863
0.4580001,-0.0004999685
0.4570001,-0.0005416591
0.4560001,-0.000579058
0.4550001,-0.0006195224
0.4540001,-0.0006532427
0.4530001,-0.0006860433
0.4520001,-0.000718844
0.4510001,-0.0007449006
0.4500001,-0.0007740227
0.4490001,-0.0008000793
0.4480001,-0.0008239901
0.4470001,-0.0008506598
0.4460001,-0.0008693592
0.4450001,-0.0008883653
0.4440001,-0.0009110498
0.4430001,-0.0009266838
0.4420001,-0.0009456897
0.4410001,-0.000963163
0.4400001,-0.0009748118
0.4390001,-0.0009928982
0.4380001,-0.00100608
0.4370001,-0.001018955
0.4360001,-0.001034282
0.4350001,-0.001043785
0.4340001,-0.001056047
0.4330001,-0.001068003
0.4320001,-0.001076892
0.4310001,-0.001090687
0.4300001,-0.001098964
0.4290001,-0.00110908
0.4280001,-0.001120422
0.4270001,-0.001127166
0.4260001,-0.001137589
0.4250001,-0.001146785
0.4240001,-0.001152916
0.4230001,-0.001164565
0.4220001,-0.001171616
0.4210001,-0.00117928
0.4200001,-0.001189396
0.4190001,-0.001193994
0.4180001,-0.00120319
0.4170001,-0.001211774
0.4160001,-0.001217292
0.4150001,-0.001228021
0.4140001,-0.001233232
0.4130001,-0.001239976
0.4120001,-0.001250092
0.4110001,-0.001254997
0.4100001,-0.001268792
0.4090001,-0.001279521
0.4080001,-0.00128044
0.4070001,-0.001289024
0.4060001,-0.001295461
0.4050001,-0.001301286
0.4040001,-0.001310176
0.4030001,-0.001317226
0.4020001,-0.001325197
0.4010001,-0.00133286
0.4000001,-0.001338991
0.3990001,-0.001348188
0.3980001,-0.001354319
0.3970001,-0.001364741
0.3960001,-0.001374244
0.3950001,-0.001377616
0.3940001,-0.001388345
0.3930001,-0.001397235
0.3920001,-0.001401834
0.3910001,-0.001414096
0.3900001,-0.001421146
0.3890001,-0.001428503
0.3880001,-0.001440459
0.3870001,-0.00144659
0.3860001,-0.001455786
0.3850001,-0.001466209
0.3840001,-0.001472646
0.3830001,-0.001484602
0.3820001,-0.001491959
0.3810001,-0.001502075
0.3800001,-0.001512804
0.3790001,-0.001520774
0.3780001,-0.00153273
0.3770001,-0.001543459
0.3760001,-0.001551123
0.3750001,-0.001563998
0.3740001,-0.001571968
0.3730001,-0.00158331
0.3720001,-0.001596492
0.3710001,-0.001605688
0.3700001,-0.001617337
0.3690001,-0.001628679
0.3680001,-0.00163665
0.3670001,-0.001652897
0.3660001,-0.001661787
0.3650001,-0.001674355
0.3640001,-0.001689069
0.3630001,-0.001696733
0.3620001,-0.001711141
0.3610001,-0.001724629
0.3600001,-0.001734438
0.3590001,-0.001750686
