EXPID. 1057
[电化学]: CV : 0 >> 0.7 >> 0 >> 0(V) @ 0.01(V/s) X 10(Seg)
起始电位 (V),0
上限电位 (V),0.7
下限电位 (V),0
终止电位 (V),0
扫速 (V/s),0.01
电解液 信息:
KOH,1
0.001,-4.030993E-06
0.002,-3.82254E-06
0.003,-3.595694E-06
0.004,-3.390307E-06
0.005,-3.221706E-06
0.006,-3.096021E-06
0.007,-2.890633E-06
0.008,-2.70977E-06
0.009,-2.608609E-06
0.01,-2.397091E-06
0.011,-2.289799E-06
0.012,-2.090542E-06
0.013,-1.955661E-06
0.014,-1.842238E-06
0.015,-1.633785E-06
0.016,-1.547952E-06
0.017,-1.385481E-06
0.018,-1.2506E-06
0.019,-1.115719E-06
0.02,-9.471173E-07
0.021,-8.275636E-07
0.022,-7.355991E-07
0.023,-5.455391E-07
0.024,-4.382472E-07
0.025,-3.278899E-07
0.026,-1.838122E-07
0.027,-5.812744E-08
0.028,6.755735E-08
0.029,2.23897E-07
0.03,2.821411E-07
0.031,4.752665E-07
0.032,5.488382E-07
0.033,7.051777E-07
0.034,8.216661E-07
0.035,9.258925E-07
0.036,1.085298E-06
0.037,1.180328E-06
0.038,1.309078E-06
0.039,1.453156E-06
0.04,1.554316E-06
0.041,1.725983E-06
0.042,1.885388E-06
0.043,2.001877E-06
0.044,2.133693E-06
0.045,2.259377E-06
0.046,2.348276E-06
0.047,2.498485E-06
0.048,2.621104E-06
0.049,2.710003E-06
0.05,2.78664E-06
0.051,2.896998E-06
0.052,3.007355E-06
0.053,3.087058E-06
0.054,3.197415E-06
0.055,3.289379E-06
0.056,3.415064E-06
0.057,3.427326E-06
0.058,3.510094E-06
0.059,3.684827E-06
0.06,3.807446E-06
0.061,3.936196E-06
0.062,4.074143E-06
0.063,4.230483E-06
0.064,4.37456E-06
0.065,4.506376E-06
0.066,4.589144E-06
0.067,4.678043E-06
0.068,4.843579E-06
0.069,4.880365E-06
0.07,4.993788E-06
0.071,5.085752E-06
0.072,5.122538E-06
0.073,5.189979E-06
0.074,5.334056E-06
0.075,5.426021E-06
0.076,5.652867E-06
0.077,5.750962E-06
0.078,5.845992E-06
0.079,5.999266E-06
0.08,6.072838E-06
0.081,6.137213E-06
0.082,6.226112E-06
0.083,6.256767E-06
0.084,6.388582E-06
0.085,6.462154E-06
0.086,6.652214E-06
0.087,6.833077E-06
0.088,6.986351E-06
0.089,7.090578E-06
0.09,7.161083E-06
0.091,7.194804E-06
0.092,7.268376E-06
0.093,7.351144E-06
0.094,7.363406E-06
0.095,7.553466E-06
0.096,7.663823E-06
0.097,7.829359E-06
0.098,8.022485E-06
0.099,8.105253E-06
0.1,8.240134E-06
0.101,8.325967E-06
0.102,8.445521E-06
0.103,8.525223E-06
0.104,8.653974E-06
0.105,8.712218E-06
0.106,8.859362E-06
0.107,8.935998E-06
0.108,9.052486E-06
0.109,9.202695E-06
0.11,9.23335E-06
0.111,9.325315E-06
0.112,9.426475E-06
0.113,9.51844E-06
0.114,9.58588E-06
0.115,9.729959E-06
0.116,9.929215E-06
0.117,1.00457E-05
0.118,1.017445E-05
0.119,1.030933E-05
0.12,1.041049E-05
0.121,1.050859E-05
0.122,1.063427E-05
0.123,1.071704E-05
0.124,1.077529E-05
0.125,1.090097E-05
0.126,1.095922E-05
0.127,1.110023E-05
0.128,1.125657E-05
0.129,1.146196E-05
0.13,1.154166E-05
0.131,1.166428E-05
0.132,1.174705E-05
0.133,1.184514E-05
0.134,1.192791E-05
0.135,1.198309E-05
0.136,1.205053E-05
0.137,1.216395E-05
0.138,1.236627E-05
0.139,1.248889E-05
0.14,1.263604E-05
0.141,1.277398E-05
0.142,1.282916E-05
0.143,1.293339E-05
0.144,1.299163E-05
0.145,1.304987E-05
0.146,1.312345E-05
0.147,1.321848E-05
0.148,1.336869E-05
0.149,1.354955E-05
0.15,1.369363E-05
0.151,1.381625E-05
0.152,1.394806E-05
0.153,1.40155E-05
0.154,1.407988E-05
0.155,1.411053E-05
0.156,1.422702E-05
0.157,1.432512E-05
0.158,1.440788E-05
0.159,1.466845E-05
0.16,1.474509E-05
0.161,1.486771E-05
0.162,1.495354E-05
0.163,1.488303E-05
0.164,1.503018E-05
0.165,1.510681E-05
0.166,1.531833E-05
0.167,1.552065E-05
0.168,1.555744E-05
0.169,1.565247E-05
0.17,1.576896E-05
0.171,1.576589E-05
0.172,1.584253E-05
0.173,1.605098E-05
0.174,1.61736E-05
0.175,1.63514E-05
0.176,1.638512E-05
0.177,1.652307E-05
0.178,1.659664E-05
0.179,1.665488E-05
0.18,1.676831E-05
0.181,1.683881E-05
0.182,1.688479E-05
0.183,1.713616E-05
0.184,1.726491E-05
0.185,1.741206E-05
0.186,1.748256E-05
0.187,1.753468E-05
0.188,1.771247E-05
0.189,1.777992E-05
0.19,1.783203E-05
0.191,1.791173E-05
0.192,1.806194E-05
0.193,1.820908E-05
0.194,1.842673E-05
0.195,1.851563E-05
0.196,1.861373E-05
0.197,1.866584E-05
0.198,1.872408E-05
0.199,1.882218E-05
0.2,1.895093E-05
0.201,1.915325E-05
0.202,1.934331E-05
0.203,1.938623E-05
0.204,1.952724E-05
0.205,1.963147E-05
0.206,1.969584E-05
0.207,1.983072E-05
0.208,1.987364E-05
0.209,1.999319E-05
0.21,2.017712E-05
0.211,2.027522E-05
0.212,2.049287E-05
0.213,2.067986E-05
0.214,2.07565E-05
0.215,2.092204E-05
0.216,2.099254E-05
0.217,2.105692E-05
0.218,2.120099E-05
0.219,2.121326E-05
0.22,2.133588E-05
0.221,2.146156E-05
0.222,2.160564E-05
0.223,2.174359E-05
0.224,2.18662E-05
0.225,2.203174E-05
0.226,2.222793E-05
0.227,2.239653E-05
0.228,2.254368E-05
0.229,2.26479E-05
0.23,2.27368E-05
0.231,2.289621E-05
0.232,2.297284E-05
0.233,2.308933E-05
0.234,2.319356E-05
0.235,2.331311E-05
0.236,2.341121E-05
0.237,2.35185E-05
0.238,2.362579E-05
0.239,2.382505E-05
0.24,2.400591E-05
0.241,2.411933E-05
0.242,2.431553E-05
0.243,2.450558E-05
0.244,2.513812E-05
0.245,2.519943E-05
0.246,2.532205E-05
0.247,2.547533E-05
0.248,2.56286E-05
0.249,2.572057E-05
0.25,2.581253E-05
0.251,2.593515E-05
0.252,2.605777E-05
0.253,2.618039E-05
0.254,2.636432E-05
0.255,2.654824E-05
0.256,2.676283E-05
0.257,2.694676E-05
0.258,2.7192E-05
0.259,2.725331E-05
0.26,2.746789E-05
0.261,2.768247E-05
0.262,2.771313E-05
0.263,2.795837E-05
0.264,2.808099E-05
0.265,2.823426E-05
0.266,2.838754E-05
0.267,2.854081E-05
0.268,2.869408E-05
0.269,2.884736E-05
0.27,2.903129E-05
0.271,2.921522E-05
0.272,2.939914E-05
0.273,2.958307E-05
0.274,2.985897E-05
0.275,3.010421E-05
0.276,3.028813E-05
0.277,3.03801E-05
0.278,3.056403E-05
0.279,3.077861E-05
0.28,3.083992E-05
0.281,3.10545E-05
0.282,3.120778E-05
0.283,3.136105E-05
0.284,3.154498E-05
0.285,3.172891E-05
0.286,3.188219E-05
0.287,3.209677E-05
0.288,3.22807E-05
0.289,3.243397E-05
0.29,3.274052E-05
0.291,3.286314E-05
0.292,3.316969E-05
0.293,3.341493E-05
0.294,3.359886E-05
0.295,3.381344E-05
0.296,3.405868E-05
0.297,3.41813E-05
0.298,3.439588E-05
0.299,3.454915E-05
0.3,3.482505E-05
0.301,3.503963E-05
0.302,3.522356E-05
0.303,3.540749E-05
0.304,3.556077E-05
0.305,3.577535E-05
0.306,3.598993E-05
0.307,3.623517E-05
0.308,3.651106E-05
0.309,3.67563E-05
0.31,3.697089E-05
0.311,3.724678E-05
0.312,3.749202E-05
0.313,3.773726E-05
0.314,3.801315E-05
0.315,3.822774E-05
0.316,3.853428E-05
0.317,3.874887E-05
0.318,3.899411E-05
0.319,3.920869E-05
0.32,3.948458E-05
0.321,3.976047E-05
0.322,4.000571E-05
0.323,4.02203E-05
0.324,4.05575E-05
0.325,4.080274E-05
0.326,4.101732E-05
0.327,4.135453E-05
0.328,4.153846E-05
0.329,4.187566E-05
0.33,4.215155E-05
0.331,4.239679E-05
0.332,4.264203E-05
0.333,4.288727E-05
0.334,4.313251E-05
0.335,4.346971E-05
0.336,4.371495E-05
0.337,4.402149E-05
0.338,4.438936E-05
0.339,4.472656E-05
0.34,4.515572E-05
0.341,4.540096E-05
0.342,4.573816E-05
0.343,4.601406E-05
0.344,4.635127E-05
0.345,4.65965E-05
0.346,4.696436E-05
0.347,4.717894E-05
0.348,4.75468E-05
0.349,4.785335E-05
0.35,4.822121E-05
0.351,4.868103E-05
0.352,4.904889E-05
0.353,4.941675E-05
0.354,4.975395E-05
0.355,5.00605E-05
0.356,5.045901E-05
0.357,5.079621E-05
0.358,5.116407E-05
0.359,5.153193E-05
0.36,5.186913E-05
0.361,5.220633E-05
0.362,5.257419E-05
0.363,5.300336E-05
0.364,5.346318E-05
0.365,5.383104E-05
0.366,5.429086E-05
0.367,5.478134E-05
0.368,5.52105E-05
0.369,5.573164E-05
0.37,5.616081E-05
0.371,5.658998E-05
0.372,5.714176E-05
0.373,5.760158E-05
0.374,5.803075E-05
0.375,5.855188E-05
0.376,5.907302E-05
0.377,5.956349E-05
0.378,6.011528E-05
0.379,6.060576E-05
0.38,6.121886E-05
0.381,6.177064E-05
0.382,6.235309E-05
0.383,6.296618E-05
0.384,6.357927E-05
0.385,6.425368E-05
0.386,6.489743E-05
0.387,6.557184E-05
0.388,6.630756E-05
0.389,6.704327E-05
0.39,6.774833E-05
0.391,6.85147E-05
0.392,6.928107E-05
0.393,7.013941E-05
0.394,7.105905E-05
0.395,7.188674E-05
0.396,7.2929E-05
0.397,7.400192E-05
0.398,7.492156E-05
0.399,7.602514E-05
0.4,7.706739E-05
0.401,7.810966E-05
0.402,7.927455E-05
0.403,8.037812E-05
0.404,8.160431E-05
0.405,8.286116E-05
0.406,8.427128E-05
0.407,8.577337E-05
0.408,8.727545E-05
0.409,8.886951E-05
0.41,9.046356E-05
0.411,9.208826E-05
0.412,9.38969E-05
0.413,9.567488E-05
0.414,9.745286E-05
0.415,9.953738E-05
0.416,0.0001016526
0.417,0.0001039823
0.418,0.000106496
0.419,0.0001088564
0.42,0.0001115847
0.421,0.000114221
0.422,0.0001171946
0.423,0.00012026
0.424,0.0001234175
0.425,0.0001269121
0.426,0.000130744
0.427,0.0001345758
0.428,0.0001388062
0.429,0.0001432205
0.43,0.0001476961
0.431,0.0001527542
0.432,0.0001579348
0.433,0.0001634527
0.434,0.0001694917
0.435,0.0001758372
0.436,0.0001830105
0.437,0.0001903983
0.438,0.0001983992
0.439,0.0002071052
0.44,0.000216179
0.441,0.0002262951
0.442,0.0002373002
0.443,0.000248949
0.444,0.0002622532
0.445,0.0002763851
0.446,0.0002918964
0.447,0.0003129975
0.448,0.0003320035
0.449,0.0003531553
0.45,0.0003767595
0.451,0.0004031227
0.452,0.0004331644
0.453,0.0004662716
0.454,0.0005036705
0.455,0.0005462807
0.456,0.0005934892
0.457,0.0006477482
0.458,0.0007087513
0.459,0.0007774181
0.46,0.0008558945
0.461,0.0009444869
0.462,0.001043809
0.463,0.001156618
0.464,0.001280464
0.465,0.00142025
0.466,0.001574444
0.467,0.001742432
0.468,0.0019282
0.469,0.002125924
0.47,0.002338362
0.471,0.002565208
0.472,0.002800024
0.473,0.003047408
0.474,0.003335362
0.475,0.003592863
0.476,0.003859559
0.477,0.004126256
0.478,0.004399084
0.479,0.004671912
0.48,0.00494474
0.481,0.005217568
0.482,0.00548733
0.483,0.005757092
0.484,0.006026856
0.485,0.006290487
0.486,0.006557184
0.487,0.00681775
0.488,0.007072185
0.489,0.007332751
0.49,0.007584121
0.491,0.00783549
0.492,0.008089925
0.493,0.008332099
0.494,0.008574272
0.495,0.008822575
0.496,0.009058618
0.497,0.009297726
0.498,0.009533768
0.499,0.00977594
0.5,0.01001505
0.501,0.01023883
0.502,0.01046874
0.503,0.01070172
0.504,0.0109163
0.505,0.01114315
0.506,0.01137612
0.507,0.01159684
0.508,0.01181449
0.509,0.01204133
0.51,0.01226511
0.511,0.01247663
0.512,0.01270961
0.513,0.01294258
0.514,0.0131633
0.515,0.01339321
0.516,0.01363845
0.517,0.01387142
0.518,0.0141136
0.519,0.01436497
0.52,0.01461327
0.521,0.01489223
0.522,0.01512214
0.523,0.01542256
0.524,0.01571378
0.525,0.01598048
0.526,0.01626863
0.527,0.01656905
0.528,0.01686333
0.529,0.01716682
0.53,0.0174703
0.531,0.01779524
0.532,0.01811099
0.533,0.0184206
0.534,0.01875474
0.535,0.01908581
0.536,0.01940462
0.537,0.01975102
0.538,0.02009436
0.539,0.02042543
0.54,0.02077489
0.541,0.02112742
0.542,0.02148302
0.543,0.02182329
0.544,0.02218808
0.545,0.02254674
0.546,0.02289927
0.547,0.02326406
0.548,0.02364112
0.549,0.02399058
0.55,0.02436457
0.551,0.02474163
0.552,0.02509416
0.553,0.02547428
0.554,0.02585133
0.555,0.02622226
0.556,0.02659931
0.557,0.02697636
0.558,0.02735342
0.559,0.0277366
0.56,0.02812285
0.561,0.02850297
0.562,0.02889536
0.563,0.02928467
0.564,0.02966173
0.565,0.03005411
0.566,0.03120778
0.567,0.03160629
0.568,0.03200481
0.569,0.03240332
0.57,0.03280183
0.571,0.03320035
0.572,0.03359886
0.573,0.03399737
0.574,0.03442654
0.575,0.03482505
0.576,0.03522356
0.577,0.03565273
0.578,0.03605124
0.579,0.03644976
0.58,0.03687892
0.581,0.03727744
0.582,0.03767595
0.583,0.03810512
0.584,0.03850363
0.585,0.03896345
0.586,0.03936196
0.587,0.03976048
0.588,0.04018965
0.589,0.04061881
0.59,0.04098667
0.591,0.04144649
0.592,0.04184501
0.593,0.04224352
0.594,0.04270334
0.595,0.04313251
0.596,0.04353102
0.597,0.04399084
0.598,0.04442001
0.599,0.04481852
0.6,0.04527835
0.601,0.04570751
0.602,0.04613668
0.603,0.04656585
0.604,0.04699502
0.605,0.04742418
0.606,0.04785335
0.607,0.04828252
0.608,0.04868103
0.609,0.0491102
0.61,0.04957002
0.611,0.04996854
0.612,0.0503977
0.613,0.05082687
0.614,0.05125604
0.615,0.0516852
0.616,0.05211437
0.617,0.05254354
0.618,0.05300336
0.619,0.05343253
0.62,0.0538617
0.621,0.05432152
0.622,0.05475069
0.623,0.05517985
0.624,0.05563968
0.625,0.05603819
0.626,0.05646735
0.627,0.05692718
0.628,0.057387
0.629,0.05778552
0.63,0.05824534
0.631,0.05870516
0.632,0.05910368
0.633,0.0595635
0.634,0.05999266
0.635,0.06042183
0.636,0.06088165
0.637,0.06131082
0.638,0.06177064
0.639,0.06223046
0.64,0.06265964
0.641,0.0630888
0.642,0.06354862
0.643,0.06400844
0.644,0.06440695
0.645,0.06489744
0.646,0.0653266
0.647,0.06572511
0.648,0.0662156
0.649,0.06664476
0.65,0.06704327
0.651,0.06753375
0.652,0.06796291
0.653,0.06839209
0.654,0.06888256
0.655,0.06931173
0.656,0.0697409
0.657,0.07020072
0.658,0.07066055
0.659,0.07112037
0.66,0.07154953
0.661,0.07200935
0.662,0.07246917
0.663,0.07289835
0.664,0.07332751
0.665,0.07381799
0.666,0.07424716
0.667,0.07467633
0.668,0.07513615
0.669,0.07559597
0.67,0.07602514
0.671,0.07648496
0.672,0.07694478
0.673,0.07737394
0.674,0.07783377
0.675,0.07832425
0.676,0.07872277
0.677,0.07918259
0.678,0.07967306
0.679,0.08010223
0.68,0.08056205
0.681,0.08102188
0.682,0.08145104
0.683,0.08191086
0.684,0.08237069
0.685,0.08279985
0.686,0.08329033
0.687,0.0837195
0.688,0.08414867
0.689,0.08463915
0.69,0.08509897
0.691,0.08552813
0.692,0.08598796
0.693,0.08644778
0.694,0.08687695
0.695,0.08733677
0.696,0.08782724
0.697,0.08825641
0.698,0.08874689
0.699,0.08920672
0.7,0.08929868
0.6990001,0.0888695
0.6980001,0.08840968
0.6970001,0.08794986
0.6960001,0.08749004
0.6950001,0.08706088
0.6940001,0.0865704
0.6930001,0.08614123
0.6920001,0.08571207
0.6910001,0.08525224
0.6900001,0.08482307
0.6890001,0.08436324
0.6880001,0.08387277
0.6870001,0.0834436
0.6860001,0.08301444
0.6850001,0.08252396
0.6840001,0.08212545
0.6830001,0.08166563
0.6820001,0.08120581
0.6810001,0.08077663
0.6800001,0.08034747
0.6790001,0.07985699
0.6780001,0.07945848
0.6770001,0.07902931
0.6760001,0.07853883
0.6750001,0.07814032
0.6740001,0.07771116
0.6730001,0.07722067
0.6720001,0.07682216
0.6710001,0.07636234
0.6700001,0.07590251
0.6690001,0.07547335
0.6680001,0.07501353
0.6670001,0.07455371
0.6660001,0.0741552
0.6650001,0.07366472
0.6640001,0.07323555
0.6630001,0.07283704
0.6620001,0.07237721
0.6610001,0.07191739
0.6600001,0.07148822
0.6590001,0.07108971
0.6580001,0.07059924
0.6570001,0.07017007
0.6560001,0.0697409
0.6550001,0.06928107
0.6540001,0.06885191
0.6530001,0.06842274
0.6520001,0.06796291
0.6510001,0.06756441
0.6500001,0.06710459
0.6490001,0.06664476
0.6480001,0.0662156
0.6470001,0.06572511
0.6460001,0.06529595
0.6450001,0.06486678
0.6440001,0.06440695
0.6430001,0.06397779
0.6420001,0.06357928
0.6410001,0.0630888
0.6400001,0.06269029
0.6390001,0.06223046
0.6380001,0.06173999
0.6370001,0.06134148
0.6360001,0.06091231
0.6350001,0.06045249
0.6340001,0.06002332
0.6330001,0.05959415
0.6320001,0.05916498
0.6310001,0.05873581
0.6300001,0.05830665
0.6290001,0.05784683
0.6280001,0.05741766
0.6270001,0.05701914
0.6260001,0.05655932
0.6250001,0.05613015
0.6240001,0.05570099
0.6230001,0.05527182
0.6220001,0.05484265
0.6210001,0.05441349
0.6200001,0.05395366
0.6190001,0.05352449
0.6180001,0.05309533
0.6170001,0.05266616
0.6160001,0.05223699
0.6150001,0.05180782
0.6140001,0.05137866
0.6130001,0.05094949
0.6120001,0.05052032
0.6110001,0.05009115
0.6100001,0.04966199
0.6090001,0.04926347
0.6080001,0.04883431
0.6070001,0.04840514
0.6060001,0.04797597
0.6050001,0.0475468
0.6040001,0.04711764
0.6030001,0.04671912
0.6020001,0.04628995
0.6010001,0.04586079
0.6000001,0.04543162
0.5990001,0.04503311
0.5980001,0.04460394
0.5970001,0.04417477
0.5960001,0.04377626
0.5950001,0.04334709
0.5940001,0.04291793
0.5930001,0.04251941
0.5920001,0.04209024
0.5910001,0.04166108
0.5900001,0.04126256
0.5890001,0.04083339
0.5880001,0.04043488
0.5870001,0.04003637
0.5860001,0.0396072
0.5850001,0.03917804
0.5840001,0.03881018
0.5830001,0.03838101
0.5820001,0.03795184
0.5810001,0.03755333
0.5800001,0.03712416
0.5790001,0.03672565
0.5780001,0.03632713
0.5770001,0.03592863
0.5760001,0.03553011
0.5750001,0.0351316
0.5740001,0.03470243
0.5730001,0.03430392
0.5720001,0.03390541
0.5710001,0.03350689
0.5700001,0.03310838
0.5690001,0.03270987
0.5680001,0.03231135
0.5670001,0.03191284
0.5660001,0.03151433
0.5650001,0.03111582
0.5640001,0.0307173
0.5630001,0.03031879
0.5620001,0.02992028
0.5610001,0.02952177
0.5600001,0.02912325
0.5590001,0.02872474
0.5580001,0.02835688
0.5570001,0.02795837
0.5560001,0.02759051
0.5550001,0.027192
0.5540001,0.02682414
0.5530001,0.02642563
0.5520001,0.02605777
0.5510001,0.02565926
0.5500001,0.0252914
0.5490001,0.02492354
0.5480001,0.02452503
0.5470001,0.02415717
0.5460001,0.02378931
0.5450001,0.02342146
0.5440001,0.02302294
0.5430001,0.02265508
0.5420001,0.02228723
0.5410001,0.02191937
0.5400001,0.02155151
0.5390001,0.02118365
0.5380001,0.0208158
0.5370001,0.02044794
0.5360001,0.02011073
0.5350001,0.01974287
0.5340001,0.01937502
0.5330001,0.01903781
0.5320001,0.01866996
0.5310001,0.01833276
0.5300001,0.01799555
0.5290001,0.01762769
0.5280001,0.01729049
0.5270001,0.01692263
0.5260001,0.01658543
0.5250001,0.01624822
0.5240001,0.01591102
0.5230001,0.01557382
0.5220001,0.01523662
0.5210001,0.01489941
0.5200001,0.01456221
0.5190001,0.01425566
0.5180001,0.01391846
0.5170001,0.01358126
0.5160001,0.01327471
0.5150001,0.01244904
0.5140001,0.01213636
0.5130001,0.01182981
0.5120001,0.01151407
0.5110001,0.01120752
0.5100001,0.01091017
0.5090001,0.01060975
0.5080001,0.01030933
0.5070001,0.01002118
0.5060001,0.009723827
0.5050001,0.009435672
0.5040001,0.009153648
0.5030001,0.008862427
0.5020001,0.008592664
0.5010001,0.008313705
0.5000001,0.008034746
0.4990001,0.007771115
0.4980001,0.007504418
0.4970001,0.007234655
0.4960001,0.006989417
0.4950001,0.006725786
0.4940001,0.006480547
0.4930001,0.006241439
0.4920001,0.005968611
0.4910001,0.0057387
0.4900001,0.005499593
0.4890001,0.005272747
0.4880001,0.005045901
0.4870001,0.004822121
0.4860001,0.004607537
0.4850001,0.004383757
0.4840001,0.004172239
0.4830001,0.003972982
0.4820001,0.003767595
0.4810001,0.003574469
0.4800001,0.003384409
0.4790001,0.003197415
0.4780001,0.003016552
0.4770001,0.002835688
0.4760001,0.002660956
0.4750001,0.002492354
0.4740001,0.002326818
0.4730001,0.002164347
0.4720001,0.002008008
0.4710001,0.001854734
0.4700001,0.001710656
0.4690001,0.001569644
0.4680001,0.001425566
0.4670001,0.001296816
0.4660001,0.001165
0.4650001,0.001007942
0.4640001,0.0008914541
0.4630001,0.0007728199
0.4620001,0.000662156
0.4610001,0.000554251
0.4600001,0.0004494115
0.4590001,0.0003531553
0.4580001,0.0002568991
0.4570001,0.0001646281
0.4560001,8.002077E-05
0.4550001,-1.207683E-05
0.4540001,-9.110498E-05
0.4530001,-0.0001662093
0.4520001,-0.0002427237
0.4510001,-0.0003112986
0.4500001,-0.000378882
0.4490001,-0.0004438702
0.4480001,-0.0005048733
0.4470001,-0.0005655699
0.4460001,-0.0006207486
0.4450001,-0.0006756207
0.4440001,-0.0007298798
0.4430001,-0.0007780078
0.4420001,-0.0008276686
0.4410001,-0.0008745705
0.4400001,-0.0009171807
0.4390001,-0.0009619368
0.4380001,-0.001000255
0.4370001,-0.001040413
0.4360001,-0.001080878
0.4350001,-0.001113678
0.4340001,-0.001149544
0.4330001,-0.001184184
0.4320001,-0.001215452
0.4310001,-0.001249173
0.4300001,-0.001277988
0.4290001,-0.001307723
0.4280001,-0.001338378
0.4270001,-0.001362595
0.4260001,-0.001390491
0.4250001,-0.001416855
0.4240001,-0.001440765
0.4230001,-0.001467435
0.4220001,-0.001490426
0.4210001,-0.001512804
0.4200001,-0.001536408
0.4190001,-0.001555721
0.4180001,-0.001578099
0.4170001,-0.001598025
0.4160001,-0.001616417
0.4150001,-0.001638182
0.4140001,-0.001654736
0.4130001,-0.001672209
0.4120001,-0.001691522
0.4110001,-0.00170593
0.4100001,-0.001726775
0.4090001,-0.001743941
0.4080001,-0.001754977
0.4070001,-0.001770305
0.4060001,-0.001784099
0.4050001,-0.001796668
0.4040001,-0.001807397
0.4030001,-0.001819659
0.4020001,-0.001829468
0.4010001,-0.001836826
0.4000001,-0.001843876
0.3990001,-0.001854299
0.3980001,-0.001858897
0.3970001,-0.001861656
0.3960001,-0.001867174
0.3950001,-0.001866867
0.3940001,-0.001868707
0.3930001,-0.0018684
0.3920001,-0.001864722
0.3910001,-0.001863189
0.3900001,-0.001857977
0.3890001,-0.001850007
0.3880001,-0.00184265
0.3870001,-0.001830082
0.3860001,-0.001819046
0.3850001,-0.001805251
0.3840001,-0.001788698
0.3830001,-0.001771531
0.3820001,-0.001750992
0.3810001,-0.001730147
0.3800001,-0.001709608
0.3790001,-0.001682325
0.3780001,-0.001656269
0.3770001,-0.001629292
0.3760001,-0.001599251
0.3750001,-0.001568289
0.3740001,-0.001533956
0.3730001,-0.001500542
0.3720001,-0.001464983
