EXPID. 0977
[电化学]: CV : 0 >> 0.7 >> 0 >> 0(V) @ 0.01(V/s) X 10(Seg)
起始电位 (V),0
上限电位 (V),0.7
下限电位 (V),0
终止电位 (V),0
扫速 (V/s),0.01
电解液 信息:
KOH,1
0.001,0.002216461
0.002,0.002299229
0.003,0.002378931
0.004,0.002464765
0.005,0.002550598
0.006,0.002639497
0.007,0.002731462
0.008,0.002826492
0.009,0.002921522
0.01,0.003022683
0.011,0.003123844
0.012,0.003231135
0.013,0.003338427
0.014,0.003448785
0.015,0.003565273
0.016,0.003681761
0.017,0.003804381
0.018,0.003927
0.019,0.00405575
0.02,0.004187566
0.021,0.004319381
0.022,0.004457328
0.023,0.004601406
0.024,0.004745483
0.025,0.004892627
0.026,0.005045901
0.027,0.005199175
0.028,0.00535858
0.029,0.005524116
0.03,0.005686587
0.031,0.005858254
0.032,0.006032987
0.033,0.006207719
0.034,0.006391648
0.035,0.006572511
0.036,0.006762571
0.037,0.006952631
0.038,0.007145756
0.039,0.007341947
0.04,0.007541204
0.041,0.007746591
0.042,0.007955044
0.043,0.008163497
0.044,0.00837808
0.045,0.008592664
0.046,0.008810313
0.047,0.009034094
0.048,0.009254809
0.049,0.009487785
0.05,0.009717696
0.051,0.009947607
0.052,0.01018978
0.053,0.01042582
0.054,0.01066493
0.055,0.01091017
0.056,0.01115234
0.057,0.01140065
0.058,0.01165508
0.059,0.01190338
0.06,0.01216089
0.061,0.01241839
0.062,0.01267589
0.063,0.01293645
0.064,0.01320008
0.065,0.01346678
0.066,0.01373348
0.067,0.01400324
0.068,0.01427607
0.069,0.01454276
0.07,0.01482172
0.071,0.01510068
0.072,0.01537351
0.073,0.01566167
0.074,0.01594063
0.075,0.01621958
0.076,0.01651387
0.077,0.01679589
0.078,0.01708405
0.079,0.01737834
0.08,0.01766649
0.081,0.01796078
0.082,0.01826119
0.083,0.01855548
0.084,0.01886203
0.085,0.01915938
0.086,0.01946286
0.087,0.01976635
0.088,0.02006983
0.089,0.02038251
0.09,0.02069212
0.091,0.02100174
0.092,0.02131442
0.093,0.02162403
0.094,0.02193977
0.095,0.02225552
0.096,0.02257433
0.097,0.02289008
0.098,0.02321195
0.099,0.02353383
0.1,0.02384957
0.101,0.02417758
0.102,0.02450252
0.103,0.02482746
0.104,0.02515853
0.105,0.02547734
0.106,0.02580228
0.107,0.02613029
0.108,0.0264583
0.109,0.02677711
0.11,0.02710205
0.111,0.02743005
0.112,0.02774273
0.113,0.02806768
0.114,0.02838955
0.115,0.0287053
0.116,0.02902411
0.117,0.02934598
0.118,0.0296556
0.119,0.02996827
0.12,0.03108516
0.121,0.03139171
0.122,0.0316676
0.123,0.03200481
0.124,0.0322807
0.125,0.03258725
0.126,0.0328938
0.127,0.03316969
0.128,0.03347624
0.129,0.03378279
0.13,0.03405868
0.131,0.03433457
0.132,0.03464112
0.133,0.03491702
0.134,0.03522356
0.135,0.03549946
0.136,0.03577535
0.137,0.0360819
0.138,0.03632713
0.139,0.03660303
0.14,0.03690958
0.141,0.03718547
0.142,0.03746137
0.143,0.03773726
0.144,0.03804381
0.145,0.0383197
0.146,0.03859559
0.147,0.03887149
0.148,0.03914738
0.149,0.03942328
0.15,0.03969917
0.151,0.03997506
0.152,0.04025095
0.153,0.04052685
0.154,0.04077209
0.155,0.04104798
0.156,0.04132387
0.157,0.04156911
0.158,0.04184501
0.159,0.04209024
0.16,0.04236614
0.161,0.04261138
0.162,0.04285662
0.163,0.04310185
0.164,0.04334709
0.165,0.04359233
0.166,0.04383757
0.167,0.04405215
0.168,0.04426674
0.169,0.04451197
0.17,0.04472656
0.171,0.04494114
0.172,0.04515573
0.173,0.04537031
0.174,0.04558489
0.175,0.04579948
0.176,0.04601406
0.177,0.04622864
0.178,0.04641258
0.179,0.0465965
0.18,0.04681109
0.181,0.04696436
0.182,0.04717895
0.183,0.04736288
0.184,0.04751615
0.185,0.04770008
0.186,0.04788401
0.187,0.04803728
0.188,0.04819056
0.189,0.04837449
0.19,0.04852776
0.191,0.04868103
0.192,0.04883431
0.193,0.04898758
0.194,0.04914085
0.195,0.04926347
0.196,0.04941675
0.197,0.04953937
0.198,0.04969264
0.199,0.04981526
0.2,0.04993788
0.201,0.0500605
0.202,0.05015246
0.203,0.05027508
0.204,0.0503977
0.205,0.05052032
0.206,0.05061228
0.207,0.05070425
0.208,0.05079622
0.209,0.05091884
0.21,0.0510108
0.211,0.05107211
0.212,0.05116407
0.213,0.05122538
0.214,0.05128669
0.215,0.051348
0.216,0.05140931
0.217,0.05147062
0.218,0.05153193
0.219,0.05156258
0.22,0.05159324
0.221,0.05162389
0.222,0.05165455
0.223,0.05165455
0.224,0.0516852
0.225,0.0516852
0.226,0.0516852
0.227,0.0516852
0.228,0.0516852
0.229,0.05165455
0.23,0.05162389
0.231,0.05159324
0.232,0.05156258
0.233,0.05153193
0.234,0.05143997
0.235,0.05140931
0.236,0.051348
0.237,0.05125604
0.238,0.05116407
0.239,0.05107211
0.24,0.05098015
0.241,0.05088818
0.242,0.05076556
0.243,0.05061228
0.244,0.05052032
0.245,0.05033639
0.246,0.05018312
0.247,0.05002984
0.248,0.04987657
0.249,0.04969264
0.25,0.04950871
0.251,0.04929413
0.252,0.04907954
0.253,0.04886496
0.254,0.04858907
0.255,0.04834383
0.256,0.04809859
0.257,0.04779204
0.258,0.0475468
0.259,0.0472096
0.26,0.0468724
0.261,0.04656585
0.262,0.04622864
0.263,0.04586079
0.264,0.04549293
0.265,0.04509442
0.266,0.04466525
0.267,0.04426674
0.268,0.04383757
0.269,0.0434084
0.27,0.04294858
0.271,0.0424581
0.272,0.04193697
0.273,0.04144649
0.274,0.04089471
0.275,0.04034292
0.276,0.03982178
0.277,0.03920869
0.278,0.03862625
0.279,0.03804381
0.28,0.03740006
0.281,0.03678696
0.282,0.03617386
0.283,0.03549946
0.284,0.0348557
0.285,0.03421196
0.286,0.03353755
0.287,0.03286314
0.288,0.03218874
0.289,0.03151433
0.29,0.03083992
0.291,0.03013486
0.292,0.02946045
0.293,0.02878605
0.294,0.02811164
0.295,0.02746789
0.296,0.02679349
0.297,0.02614973
0.298,0.02550598
0.299,0.02489289
0.3,0.02424913
0.301,0.02366669
0.302,0.0230536
0.303,0.02247116
0.304,0.02188871
0.305,0.02133693
0.306,0.02078514
0.307,0.02026401
0.308,0.01974287
0.309,0.0192524
0.31,0.01876192
0.311,0.0183021
0.312,0.01784228
0.313,0.01738245
0.314,0.01695329
0.315,0.01655477
0.316,0.01618692
0.317,0.0157884
0.318,0.0154512
0.319,0.015114
0.32,0.01477679
0.321,0.01447024
0.322,0.01419435
0.323,0.0138878
0.324,0.01364256
0.325,0.01336667
0.326,0.01261151
0.327,0.01237854
0.328,0.01216089
0.329,0.01194937
0.33,0.01174398
0.331,0.01155698
0.332,0.01137306
0.333,0.01118913
0.334,0.01102666
0.335,0.01086112
0.336,0.01070172
0.337,0.0105607
0.338,0.01041356
0.339,0.01028175
0.34,0.01015913
0.341,0.01002118
0.342,0.009904691
0.343,0.009794333
0.344,0.009674779
0.345,0.009573619
0.346,0.009478589
0.347,0.009368232
0.348,0.009279332
0.349,0.009190434
0.35,0.009095403
0.351,0.009015701
0.352,0.008939064
0.353,0.008853231
0.354,0.00878579
0.355,0.008712218
0.356,0.008641711
0.357,0.008577337
0.358,0.008512962
0.359,0.008457784
0.36,0.008390343
0.361,0.008335164
0.362,0.008283051
0.363,0.008227872
0.364,0.008172693
0.365,0.008126711
0.366,0.008074597
0.367,0.008028615
0.368,0.007985699
0.369,0.007948913
0.37,0.0078968
0.371,0.007866145
0.372,0.007829359
0.373,0.007780312
0.374,0.007755788
0.375,0.007715936
0.376,0.007676085
0.377,0.007654627
0.378,0.007617841
0.379,0.007587186
0.38,0.007562662
0.381,0.007525877
0.382,0.007504418
0.383,0.007479894
0.384,0.007449239
0.385,0.007430846
0.386,0.007403257
0.387,0.007381798
0.388,0.007366471
0.389,0.007341947
0.39,0.007320489
0.391,0.007305162
0.392,0.007283703
0.393,0.00726531
0.394,0.007253048
0.395,0.007234655
0.396,0.007216263
0.397,0.007207066
0.398,0.007191739
0.399,0.007176412
0.4,0.00716415
0.401,0.007151887
0.402,0.00713656
0.403,0.007130429
0.404,0.007124298
0.405,0.007108971
0.406,0.007099774
0.407,0.007093643
0.408,0.007078316
0.409,0.007078316
0.41,0.007081382
0.411,0.007066054
0.412,0.007059923
0.413,0.007053792
0.414,0.007044595
0.415,0.007038464
0.416,0.007035399
0.417,0.007032333
0.418,0.007023137
0.419,0.007023137
0.42,0.007020072
0.421,0.007010875
0.422,0.007013941
0.423,0.007013941
0.424,0.007004744
0.425,0.007010875
0.426,0.00700781
0.427,0.007004744
0.428,0.007013941
0.429,0.007010875
0.43,0.00700781
0.431,0.007013941
0.432,0.007010875
0.433,0.007013941
0.434,0.007020072
0.435,0.007020072
0.436,0.007023137
0.437,0.007029268
0.438,0.007029268
0.439,0.007038464
0.44,0.007044595
0.441,0.007047662
0.442,0.007056858
0.443,0.007062989
0.444,0.00706912
0.445,0.007075251
0.446,0.007084447
0.447,0.007093643
0.448,0.00710284
0.449,0.007115101
0.45,0.007121233
0.451,0.007133495
0.452,0.007145756
0.453,0.007151887
0.454,0.007173346
0.455,0.007182543
0.456,0.007200935
0.457,0.007219328
0.458,0.007228524
0.459,0.007246917
0.46,0.007262245
0.461,0.007277572
0.462,0.007302096
0.463,0.007320489
0.464,0.007332751
0.465,0.007363406
0.466,0.007378733
0.467,0.007400192
0.468,0.007433912
0.469,0.007449239
0.47,0.007482959
0.471,0.007513615
0.472,0.007535073
0.473,0.007574924
0.474,0.007608644
0.475,0.007636234
0.476,0.007682216
0.477,0.007715936
0.478,0.007752722
0.479,0.007798704
0.48,0.007844687
0.481,0.007890669
0.482,0.007933586
0.483,0.007988765
0.484,0.008040877
0.485,0.008092991
0.486,0.008157366
0.487,0.00821561
0.488,0.00827692
0.489,0.008353557
0.49,0.008424062
0.491,0.008494569
0.492,0.008583468
0.493,0.00866317
0.494,0.008749004
0.495,0.008844034
0.496,0.008935998
0.497,0.009037159
0.498,0.009144451
0.499,0.009251743
0.5,0.009368232
0.501,0.009487785
0.502,0.009607339
0.503,0.009733024
0.504,0.009867905
0.505,0.01000585
0.506,0.01014993
0.507,0.01030014
0.508,0.01045341
0.509,0.01060975
0.51,0.01077835
0.511,0.01094695
0.512,0.01112782
0.513,0.01131481
0.514,0.01149568
0.515,0.01168574
0.516,0.01189112
0.517,0.01208731
0.518,0.01229577
0.519,0.01251648
0.52,0.012728
0.521,0.01295485
0.522,0.01318782
0.523,0.01341773
0.524,0.01365991
0.525,0.01390821
0.526,0.01415651
0.527,0.01441095
0.528,0.01466845
0.529,0.01493208
0.53,0.01520184
0.531,0.01547467
0.532,0.01575363
0.533,0.01603259
0.534,0.01632075
0.535,0.0166089
0.536,0.01690012
0.537,0.0172036
0.538,0.01749789
0.539,0.01780444
0.54,0.01811712
0.541,0.0184206
0.542,0.01873941
0.543,0.01906129
0.544,0.01937703
0.545,0.0197081
0.546,0.02003611
0.547,0.02036412
0.548,0.02070438
0.549,0.02103546
0.55,0.02137573
0.551,0.02172519
0.552,0.02206546
0.553,0.02240879
0.554,0.02276439
0.555,0.02311386
0.556,0.02346945
0.557,0.02382811
0.558,0.02418984
0.559,0.02454543
0.56,0.02491023
0.561,0.02528115
0.562,0.02564288
0.563,0.02601993
0.564,0.02639699
0.565,0.02676178
0.566,0.0271419
0.567,0.02752202
0.568,0.02789601
0.569,0.02828532
0.57,0.02866544
0.571,0.02904557
0.572,0.02944101
0.573,0.02982113
0.574,0.0309932
0.575,0.03136105
0.576,0.03175957
0.577,0.03215808
0.578,0.03255659
0.579,0.03295511
0.58,0.03335362
0.581,0.03378279
0.582,0.0341813
0.583,0.03457981
0.584,0.03497833
0.585,0.03540749
0.586,0.035806
0.587,0.03620452
0.588,0.03663369
0.589,0.0370322
0.59,0.03746137
0.591,0.03785988
0.592,0.03828905
0.593,0.03871821
0.594,0.03914738
0.595,0.03954589
0.596,0.03997506
0.597,0.04040423
0.598,0.04080274
0.599,0.04123191
0.6,0.04166108
0.601,0.04209024
0.602,0.04251941
0.603,0.04294858
0.604,0.04337775
0.605,0.04380691
0.606,0.04423608
0.607,0.04466525
0.608,0.04506376
0.609,0.04552358
0.61,0.04595275
0.611,0.04638192
0.612,0.04684174
0.613,0.04727091
0.614,0.04770008
0.615,0.0481599
0.616,0.04855841
0.617,0.04901823
0.618,0.0494474
0.619,0.04987657
0.62,0.05030574
0.621,0.05076556
0.622,0.05116407
0.623,0.05162389
0.624,0.05208372
0.625,0.05251288
0.626,0.0529727
0.627,0.05343253
0.628,0.0538617
0.629,0.05432152
0.63,0.05475069
0.631,0.05521051
0.632,0.05567033
0.633,0.0560995
0.634,0.05655932
0.635,0.05701914
0.636,0.05747896
0.637,0.05790814
0.638,0.05839861
0.639,0.05885844
0.64,0.0592876
0.641,0.05977808
0.642,0.0602379
0.643,0.06066707
0.644,0.06115754
0.645,0.06161737
0.646,0.06207719
0.647,0.06253701
0.648,0.06299683
0.649,0.06345665
0.65,0.06394713
0.651,0.06440695
0.652,0.06486678
0.653,0.0653266
0.654,0.06578642
0.655,0.06624625
0.656,0.06670607
0.657,0.0671659
0.658,0.06762572
0.659,0.06811619
0.66,0.06857602
0.661,0.06903584
0.662,0.06952631
0.663,0.06998613
0.664,0.07044595
0.665,0.07093643
0.666,0.07139625
0.667,0.07185608
0.668,0.07234656
0.669,0.07280638
0.67,0.0732662
0.671,0.07375668
0.672,0.07421651
0.673,0.07470698
0.674,0.07516681
0.675,0.07562663
0.676,0.07608645
0.677,0.07657693
0.678,0.07703675
0.679,0.07752723
0.68,0.07798705
0.681,0.07844687
0.682,0.07890669
0.683,0.07939716
0.684,0.07985699
0.685,0.08031681
0.686,0.08077663
0.687,0.08126711
0.688,0.08172693
0.689,0.08218676
0.69,0.08267724
0.691,0.08313706
0.692,0.08359688
0.693,0.08408736
0.694,0.08454718
0.695,0.08503766
0.696,0.08552813
0.697,0.08598796
0.698,0.08647843
0.699,0.08696891
0.7,0.08706088
0.6990001,0.08660105
0.6980001,0.08614123
0.6970001,0.08568141
0.6960001,0.08522158
0.6950001,0.08476176
0.6940001,0.08430194
0.6930001,0.08387277
0.6920001,0.08341295
0.6910001,0.08295313
0.6900001,0.08252396
0.6890001,0.08206414
0.6880001,0.08160432
0.6870001,0.08117515
0.6860001,0.08071532
0.6850001,0.08028616
0.6840001,0.07982634
0.6830001,0.07939716
0.6820001,0.07893734
0.6810001,0.07847752
0.6800001,0.07804836
0.6790001,0.07758854
0.6780001,0.07712871
0.6770001,0.07669955
0.6760001,0.07623972
0.6750001,0.0757799
0.6740001,0.07535073
0.6730001,0.07492156
0.6720001,0.07446174
0.6710001,0.07400192
0.6700001,0.07360341
0.6690001,0.07314359
0.6680001,0.07268376
0.6670001,0.07225459
0.6660001,0.07179477
0.6650001,0.0713656
0.6640001,0.07093643
0.6630001,0.07047661
0.6620001,0.07004745
0.6610001,0.06958763
0.6600001,0.0691278
0.6590001,0.06869864
0.6580001,0.06823882
0.6570001,0.06780964
0.6560001,0.06738048
0.6550001,0.06692065
0.6540001,0.06649148
0.6530001,0.06606232
0.6520001,0.0656025
0.6510001,0.06517333
0.6500001,0.06474417
0.6490001,0.06428434
0.6480001,0.06385517
0.6470001,0.063426
0.6460001,0.06296618
0.6450001,0.06253701
0.6440001,0.06210784
0.6430001,0.06164802
0.6420001,0.06121886
0.6410001,0.06078969
0.6400001,0.06032987
0.6390001,0.0599007
0.6380001,0.05947153
0.6370001,0.05901171
0.6360001,0.05861319
0.6350001,0.05815337
0.6340001,0.05772421
0.6330001,0.05729504
0.6320001,0.05686587
0.6310001,0.05640605
0.6300001,0.05600753
0.6290001,0.05557837
0.6280001,0.0551492
0.6270001,0.05472003
0.6260001,0.05426021
0.6250001,0.05383104
0.6240001,0.05340188
0.6230001,0.05294205
0.6220001,0.05254354
0.6210001,0.05211437
0.6200001,0.0516852
0.6190001,0.05125604
0.6180001,0.05082687
0.6170001,0.0503977
0.6160001,0.04996854
0.6150001,0.04957002
0.6140001,0.0491102
0.6130001,0.04871169
0.6120001,0.04828252
0.6110001,0.04785335
0.6100001,0.04742418
0.6090001,0.04702567
0.6080001,0.0465965
0.6070001,0.04616734
0.6060001,0.04573817
0.6050001,0.045309
0.6040001,0.04487984
0.6030001,0.04445067
0.6020001,0.04405215
0.6010001,0.04362299
0.6000001,0.04319382
0.5990001,0.0427953
0.5980001,0.04236614
0.5970001,0.04196763
0.5960001,0.04153846
0.5950001,0.04113995
0.5940001,0.04071078
0.5930001,0.04028161
0.5920001,0.0398831
0.5910001,0.03948459
0.5900001,0.03905542
0.5890001,0.0386569
0.5880001,0.03822774
0.5870001,0.03782922
0.5860001,0.03743071
0.5850001,0.03700154
0.5840001,0.03660303
0.5830001,0.03620452
0.5820001,0.035806
0.5810001,0.03540749
0.5800001,0.03497833
0.5790001,0.03457981
0.5780001,0.0341813
0.5770001,0.03378279
0.5760001,0.03338427
0.5750001,0.03298576
0.5740001,0.03258725
0.5730001,0.03218874
0.5720001,0.03179022
0.5710001,0.03139171
0.5700001,0.0309932
0.5690001,0.03062534
0.5680001,0.03019617
0.5670001,0.02979766
0.5660001,0.0294298
0.5650001,0.02903129
0.5640001,0.02863277
0.5630001,0.02826492
0.5620001,0.02786641
0.5610001,0.02746789
0.5600001,0.02710003
0.5590001,0.02670152
0.5580001,0.02633366
0.5570001,0.02593515
0.5560001,0.02556729
0.5550001,0.02519943
0.5540001,0.02480092
0.5530001,0.02443307
0.5520001,0.02406521
0.5510001,0.02369735
0.5500001,0.02329884
0.5490001,0.02293098
0.5480001,0.02256312
0.5470001,0.02219526
0.5460001,0.02182741
0.5450001,0.02145955
0.5440001,0.02109169
0.5430001,0.02072383
0.5420001,0.02038663
0.5410001,0.02001877
0.5400001,0.01965091
0.5390001,0.01931371
0.5380001,0.01894585
0.5370001,0.01860865
0.5360001,0.01827144
0.5350001,0.01790359
0.5340001,0.01756638
0.5330001,0.01722918
0.5320001,0.01686132
0.5310001,0.01652412
0.5300001,0.01618692
0.5290001,0.01584971
0.5280001,0.01551251
0.5270001,0.01517531
0.5260001,0.0148381
0.5250001,0.0145009
0.5240001,0.0141637
0.5230001,0.01385715
0.5220001,0.01351995
0.5210001,0.0132134
0.5200001,0.01238467
0.5190001,0.01207199
0.5180001,0.01176237
0.5170001,0.01144969
0.5160001,0.01114621
0.5150001,0.01084273
0.5140001,0.01053925
0.5130001,0.01023883
0.5120001,0.009935346
0.5110001,0.009637994
0.5100001,0.009352904
0.5090001,0.009064749
0.5080001,0.008776593
0.5070001,0.008497634
0.5060001,0.008212545
0.5050001,0.007936651
0.5040001,0.007663823
0.5030001,0.00738793
0.5020001,0.007121233
0.5010001,0.00685147
0.5000001,0.006590905
0.4990001,0.006333403
0.4980001,0.006072837
0.4970001,0.005821468
0.4960001,0.005573164
0.4950001,0.005318729
0.4940001,0.005082687
0.4930001,0.004840514
0.4920001,0.004601406
0.4910001,0.004371495
0.4900001,0.004138518
0.4890001,0.003914738
0.4880001,0.003694023
0.4870001,0.003470243
0.4860001,0.003258725
0.4850001,0.003047206
0.4840001,0.002835688
0.4830001,0.002633366
0.4820001,0.002431044
0.4810001,0.002234854
0.4800001,0.002038663
0.4790001,0.001848603
0.4780001,0.001664674
0.4770001,0.00148381
0.4760001,0.001302947
0.4750001,0.00113128
0.4740001,0.0009264006
0.4730001,0.0007593317
0.4720001,0.0005999266
0.4710001,0.0004374561
0.4700001,0.0002844885
0.4690001,0.0001342798
0.4680001,-1.531574E-05
0.4670001,-0.0001616417
0.4660001,-0.0003012745
0.4650001,-0.0004346738
0.4640001,-0.0005655699
0.4630001,-0.0006967725
0.4620001,-0.0008190853
0.4610001,-0.0009429308
0.4600001,-0.001062178
0.4590001,-0.001171616
0.4580001,-0.001284732
0.4570001,-0.001390798
0.4560001,-0.001490733
0.4550001,-0.001593733
0.4540001,-0.001689376
0.4530001,-0.001781953
0.4520001,-0.001874531
0.4510001,-0.001956993
0.4500001,-0.002043132
0.4490001,-0.002124981
0.4480001,-0.002202231
0.4470001,-0.002280401
0.4460001,-0.002350294
0.4450001,-0.002417735
0.4440001,-0.002486401
0.4430001,-0.002547711
0.4420001,-0.00261178
0.4410001,-0.002670024
0.4400001,-0.002725815
0.4390001,-0.00278222
0.4380001,-0.002831575
0.4370001,-0.002883381
0.4360001,-0.002932123
0.4350001,-0.002973507
0.4340001,-0.003020715
0.4330001,-0.003025514
0.4320001,-0.0030623
0.4310001,-0.003102152
0.4300001,-0.003135872
0.4290001,-0.003169592
0.4280001,-0.003206378
0.4270001,-0.003233967
0.4260001,-0.003267688
0.4250001,-0.003295277
0.4240001,-0.003322866
0.4230001,-0.003350456
0.4220001,-0.003374979
0.4210001,-0.003399503
0.4200001,-0.003420962
0.4190001,-0.003439354
0.4180001,-0.003460813
0.4170001,-0.003482271
0.4160001,-0.003497599
0.4150001,-0.003519057
0.4140001,-0.003531319
0.4130001,-0.003546647
0.4120001,-0.003565039
0.4110001,-0.003574236
0.4100001,-0.003595694
0.4090001,-0.003614087
0.4080001,-0.003620218
0.4070001,-0.00363248
0.4060001,-0.003638611
0.4050001,-0.003647808
0.4040001,-0.003657004
0.4030001,-0.003663135
0.4020001,-0.003672331
0.4010001,-0.003678462
0.4000001,-0.003681528
0.3990001,-0.003690724
0.3980001,-0.00369379
0.3970001,-0.003699921
0.3960001,-0.003709117
0.3950001,-0.003709117
0.3940001,-0.003712183
0.3930001,-0.003715248
0.3920001,-0.003718314
0.3910001,-0.003721379
0.3900001,-0.003724444
0.3890001,-0.00372751
0.3880001,-0.00372751
0.3870001,-0.00372751
0.3860001,-0.003730575
0.3850001,-0.003730575
0.3840001,-0.00372751
0.3830001,-0.003730575
0.3820001,-0.00372751
0.3810001,-0.003730575
0.3800001,-0.003730575
0.3790001,-0.003724444
0.3780001,-0.00372751
0.3770001,-0.003724444
0.3760001,-0.003721379
0.3750001,-0.003721379
0.3740001,-0.003718314
0.3730001,-0.003715248
0.3720001,-0.003715248
0.3710001,-0.003709117
0.3700001,-0.003709117
0.3690001,-0.003702986
0.3680001,-0.003699921
0.3670001,-0.003699921
0.3660001,-0.003690724
0.3650001,-0.003687659
0.3640001,-0.003687659
0.3630001,-0.003675397
0.3620001,-0.003675397
0.3610001,-0.003669266
0.3600001,-0.003660069
0.3590001,-0.003660069
0.3580001,-0.003653938
0.3570001,-0.003644742
0.3560001,-0.003644742
0.3550001,-0.003635545
0.3540001,-0.003629415
0.3530001,-0.003623284
0.3520001,-0.003617153
0.3510001,-0.003611021
0.3500001,-0.003601825
0.3490001,-0.003595694
0.3480001,-0.003589563
0.3470001,-0.003580367
0.3460001,-0.003574236
0.3450001,-0.003568105
0.3440001,-0.003561974
0.3430001,-0.003555843
0.3420001,-0.003543581
0.3410001,-0.00353745
0.3400001,-0.003534385
0.3390001,-0.003522123
0.3380001,-0.003519057
