EXPID. 0997
[电化学]: CV : 0 >> 0.7 >> 0 >> 0(V) @ 0.01(V/s) X 10(Seg)
起始电位 (V),0
上限电位 (V),0.7
下限电位 (V),0
终止电位 (V),0
扫速 (V/s),0.01
电解液 信息:
KOH,1
0.001,0.0001680001
0.002,0.0001756638
0.003,0.000183021
0.004,0.0001906847
0.005,0.0001980419
0.006,0.0002057056
0.007,0.0002139824
0.008,0.0002222592
0.009,0.0002311491
0.01,0.0002403455
0.011,0.000249542
0.012,0.0002602712
0.013,0.0002706938
0.014,0.000281423
0.015,0.0002933784
0.016,0.0003053338
0.017,0.0003179022
0.018,0.0003313904
0.019,0.000345185
0.02,0.0003598994
0.021,0.0003749202
0.022,0.0003908607
0.023,0.0004077209
0.024,0.0004248876
0.025,0.0004432805
0.026,0.0004622865
0.027,0.0004819056
0.028,0.0005030574
0.029,0.0005242092
0.03,0.0005468938
0.031,0.0005708046
0.032,0.000595635
0.033,0.000621385
0.034,0.0006486679
0.035,0.0006765637
0.036,0.0007066055
0.037,0.0007372603
0.038,0.0007691413
0.039,0.0008034747
0.04,0.0008381146
0.041,0.0008749004
0.042,0.0009135255
0.043,0.0009530703
0.044,0.0009950673
0.045,0.001038597
0.046,0.001083966
0.047,0.001131481
0.048,0.001180222
0.049,0.001231723
0.05,0.001284755
0.051,0.001340241
0.052,0.001399098
0.053,0.001457649
0.054,0.001519878
0.055,0.001585173
0.056,0.001650774
0.057,0.00172036
0.058,0.001792706
0.059,0.001865971
0.06,0.001943528
0.061,0.002022311
0.062,0.002103853
0.063,0.00218938
0.064,0.002276439
0.065,0.002366871
0.066,0.002459755
0.067,0.002555091
0.068,0.002655333
0.069,0.002755574
0.07,0.00286072
0.071,0.002970158
0.072,0.003114647
0.073,0.00322807
0.074,0.003344558
0.075,0.003464112
0.076,0.003589797
0.077,0.003715482
0.078,0.003847297
0.079,0.003985244
0.08,0.004120125
0.081,0.004264203
0.082,0.004411346
0.083,0.004561555
0.084,0.00472096
0.085,0.0048773
0.086,0.00503977
0.087,0.005205306
0.088,0.005376973
0.089,0.005557837
0.09,0.005735634
0.091,0.005919564
0.092,0.006109623
0.093,0.006299683
0.094,0.00649894
0.095,0.006701262
0.096,0.006906649
0.097,0.007121233
0.098,0.007332751
0.099,0.0075504
0.1,0.007777246
0.101,0.008001027
0.102,0.008234003
0.103,0.00847311
0.104,0.008706087
0.105,0.008951326
0.106,0.009196565
0.107,0.009441803
0.108,0.009696238
0.109,0.009950673
0.11,0.01020511
0.111,0.01046261
0.112,0.01072624
0.113,0.01098681
0.114,0.01125044
0.115,0.01151713
0.116,0.0117869
0.117,0.01205666
0.118,0.01232642
0.119,0.01259618
0.12,0.01286901
0.121,0.01314184
0.122,0.01341467
0.123,0.01369056
0.124,0.01396646
0.125,0.01423009
0.126,0.01450904
0.127,0.01477881
0.128,0.0150455
0.129,0.01532753
0.13,0.01559423
0.131,0.01586092
0.132,0.01614295
0.133,0.01640658
0.134,0.01667328
0.135,0.01694304
0.136,0.0172036
0.137,0.01746724
0.138,0.01773087
0.139,0.01798837
0.14,0.01824893
0.141,0.0185095
0.142,0.0187578
0.143,0.01901837
0.144,0.01926974
0.145,0.01951498
0.146,0.01976328
0.147,0.02000852
0.148,0.02024763
0.149,0.02048674
0.15,0.02072585
0.151,0.02096189
0.152,0.02118567
0.153,0.02142784
0.154,0.02165469
0.155,0.02187234
0.156,0.02210225
0.157,0.02231683
0.158,0.02253141
0.159,0.02275213
0.16,0.02296058
0.161,0.02316904
0.162,0.02337749
0.163,0.02357981
0.164,0.02377906
0.165,0.02398139
0.166,0.02417758
0.167,0.02437684
0.168,0.02456996
0.169,0.02475389
0.17,0.02494088
0.171,0.02512481
0.172,0.02530568
0.173,0.02548347
0.174,0.02566127
0.175,0.025836
0.176,0.02600154
0.177,0.02617321
0.178,0.02634181
0.179,0.02649202
0.18,0.02666982
0.181,0.02682002
0.182,0.02697636
0.183,0.02714496
0.184,0.02728598
0.185,0.02743619
0.186,0.02759252
0.187,0.02772741
0.188,0.02786535
0.189,0.0280033
0.19,0.02813818
0.191,0.02826693
0.192,0.02839875
0.193,0.0285275
0.194,0.02864092
0.195,0.02876048
0.196,0.02888309
0.197,0.02898425
0.198,0.02909768
0.199,0.02920497
0.2,0.02929387
0.201,0.02940422
0.202,0.02949312
0.203,0.02956976
0.204,0.02967092
0.205,0.02975675
0.206,0.02981807
0.207,0.02991003
0.208,0.02996827
0.209,0.03083992
0.21,0.03087058
0.211,0.03093189
0.212,0.0309932
0.213,0.03102385
0.214,0.03105451
0.215,0.03108516
0.216,0.03111582
0.217,0.03117712
0.218,0.03117712
0.219,0.03120778
0.22,0.03123844
0.221,0.03120778
0.222,0.03123844
0.223,0.03120778
0.224,0.03120778
0.225,0.03120778
0.226,0.03120778
0.227,0.03114647
0.228,0.03114647
0.229,0.03111582
0.23,0.03105451
0.231,0.03102385
0.232,0.03096254
0.233,0.03090123
0.234,0.03087058
0.235,0.03077861
0.236,0.0307173
0.237,0.03065599
0.238,0.03056403
0.239,0.03047206
0.24,0.03041076
0.241,0.03028814
0.242,0.03019617
0.243,0.03007355
0.244,0.02995093
0.245,0.02985897
0.246,0.02973635
0.247,0.02961373
0.248,0.02949111
0.249,0.02933784
0.25,0.02918456
0.251,0.02906194
0.252,0.02890867
0.253,0.02875539
0.254,0.02860212
0.255,0.02844885
0.256,0.02826492
0.257,0.02811164
0.258,0.02792772
0.259,0.02774378
0.26,0.02755986
0.261,0.02734527
0.262,0.02716134
0.263,0.02697741
0.264,0.02676283
0.265,0.0265789
0.266,0.02636432
0.267,0.02614973
0.268,0.02593515
0.269,0.02572057
0.27,0.02550598
0.271,0.02526074
0.272,0.02501551
0.273,0.02480092
0.274,0.02455568
0.275,0.0243411
0.276,0.02409586
0.277,0.02385062
0.278,0.02360538
0.279,0.02336015
0.28,0.02311491
0.281,0.02286967
0.282,0.02262443
0.283,0.02234854
0.284,0.0221033
0.285,0.02185806
0.286,0.02158217
0.287,0.02133693
0.288,0.02106103
0.289,0.0208158
0.29,0.0205399
0.291,0.02029466
0.292,0.02004942
0.293,0.01977353
0.294,0.01949764
0.295,0.0192524
0.296,0.01897651
0.297,0.01873127
0.298,0.01848603
0.299,0.01821013
0.3,0.0179649
0.301,0.017689
0.302,0.01741311
0.303,0.01719853
0.304,0.01692263
0.305,0.01664674
0.306,0.01643215
0.307,0.01618692
0.308,0.01594168
0.309,0.01569644
0.31,0.0154512
0.311,0.01520596
0.312,0.01499138
0.313,0.01474614
0.314,0.01453156
0.315,0.01431697
0.316,0.01410239
0.317,0.01385715
0.318,0.01367322
0.319,0.01348929
0.32,0.01327471
0.321,0.01258699
0.322,0.01238773
0.323,0.01220993
0.324,0.01204746
0.325,0.01186353
0.326,0.01170106
0.327,0.01155085
0.328,0.01137612
0.329,0.01123818
0.33,0.01109103
0.331,0.01093163
0.332,0.01080288
0.333,0.0106588
0.334,0.01051472
0.335,0.01039517
0.336,0.01026335
0.337,0.01013154
0.338,0.01001505
0.339,0.009895494
0.34,0.009785137
0.341,0.009662517
0.342,0.009561357
0.343,0.009450999
0.344,0.009337576
0.345,0.009251743
0.346,0.009141386
0.347,0.009046356
0.348,0.008963588
0.349,0.008859362
0.35,0.008770462
0.351,0.008684629
0.352,0.008592664
0.353,0.008509896
0.354,0.008430193
0.355,0.008344361
0.356,0.008270789
0.357,0.008197217
0.358,0.008120581
0.359,0.008056205
0.36,0.007979568
0.361,0.007905996
0.362,0.007844687
0.363,0.007771115
0.364,0.007709805
0.365,0.007648496
0.366,0.007581055
0.367,0.007522811
0.368,0.007461501
0.369,0.007406323
0.37,0.007348078
0.371,0.007289834
0.372,0.007240786
0.373,0.007188674
0.374,0.007130429
0.375,0.007084447
0.376,0.007035399
0.377,0.006983286
0.378,0.006937304
0.379,0.006888256
0.38,0.006842274
0.381,0.006799357
0.382,0.00675644
0.383,0.006713524
0.384,0.006667541
0.385,0.006630755
0.386,0.006587839
0.387,0.006551053
0.388,0.006514267
0.389,0.006471351
0.39,0.006443761
0.391,0.00640391
0.392,0.006367124
0.393,0.006339534
0.394,0.006296618
0.395,0.006265963
0.396,0.006241439
0.397,0.006204653
0.398,0.006173999
0.399,0.00614641
0.4,0.006109623
0.401,0.006082034
0.402,0.006054445
0.403,0.006026856
0.404,0.005999266
0.405,0.005971677
0.406,0.005947153
0.407,0.005922629
0.408,0.005891975
0.409,0.005876646
0.41,0.005855188
0.411,0.005830665
0.412,0.005812271
0.413,0.005778552
0.414,0.005760158
0.415,0.005741765
0.416,0.005717242
0.417,0.005701914
0.418,0.00567739
0.419,0.005655932
0.42,0.00564367
0.421,0.005622211
0.422,0.005603819
0.423,0.005588491
0.424,0.005567033
0.425,0.005554772
0.426,0.005536378
0.427,0.005521051
0.428,0.005508789
0.429,0.005490396
0.43,0.005481199
0.431,0.005465872
0.432,0.005450545
0.433,0.005444414
0.434,0.005429087
0.435,0.005413759
0.436,0.005410693
0.437,0.005395366
0.438,0.00538617
0.439,0.005383104
0.44,0.005370842
0.441,0.005364711
0.442,0.005361645
0.443,0.005352449
0.444,0.005349384
0.445,0.005346318
0.446,0.005343253
0.447,0.005340187
0.448,0.005343253
0.449,0.005343253
0.45,0.005340187
0.451,0.005346318
0.452,0.005352449
0.453,0.005352449
0.454,0.005364711
0.455,0.005373908
0.456,0.005376973
0.457,0.005395366
0.458,0.005404562
0.459,0.00541989
0.46,0.005447479
0.461,0.005462807
0.462,0.00548733
0.463,0.005517985
0.464,0.005539444
0.465,0.005573164
0.466,0.00560995
0.467,0.005640605
0.468,0.005686587
0.469,0.005729503
0.47,0.005775486
0.471,0.005830665
0.472,0.005885844
0.473,0.005947153
0.474,0.006017659
0.475,0.006082034
0.476,0.006161737
0.477,0.006244505
0.478,0.006327272
0.479,0.006422303
0.48,0.006520398
0.481,0.00662769
0.482,0.006734982
0.483,0.006854536
0.484,0.00698022
0.485,0.007108971
0.486,0.007246917
0.487,0.007397126
0.488,0.007541204
0.489,0.007709805
0.49,0.007878407
0.491,0.008043943
0.492,0.008230938
0.493,0.008424062
0.494,0.008620254
0.495,0.008828706
0.496,0.009037159
0.497,0.009260939
0.498,0.009484719
0.499,0.009717696
0.5,0.009962935
0.501,0.01020817
0.502,0.01046261
0.503,0.01072624
0.504,0.01099294
0.505,0.01126576
0.506,0.01154472
0.507,0.01183288
0.508,0.01212717
0.509,0.01241839
0.51,0.01272493
0.511,0.01303148
0.512,0.01334723
0.513,0.01367217
0.514,0.01399098
0.515,0.01431592
0.516,0.01465312
0.517,0.0149842
0.518,0.0153214
0.519,0.01567086
0.52,0.0160142
0.521,0.01636979
0.522,0.01672846
0.523,0.01708711
0.524,0.01744884
0.525,0.01781057
0.526,0.01817843
0.527,0.01854935
0.528,0.01892641
0.529,0.01930346
0.53,0.01968358
0.531,0.02006676
0.532,0.02045302
0.533,0.0208362
0.534,0.02123165
0.535,0.0216179
0.536,0.02201028
0.537,0.02241186
0.538,0.02280424
0.539,0.02320582
0.54,0.0236166
0.541,0.02401511
0.542,0.02441056
0.543,0.02483359
0.544,0.02523517
0.545,0.02564595
0.546,0.02606898
0.547,0.02647056
0.548,0.02689666
0.549,0.0273105
0.55,0.02772434
0.551,0.02815351
0.552,0.02856428
0.553,0.02898732
0.554,0.02942262
0.555,0.02983952
0.556,0.03105451
0.557,0.03145302
0.558,0.03188219
0.559,0.03231135
0.56,0.03274052
0.561,0.03320035
0.562,0.03362951
0.563,0.03405868
0.564,0.0345185
0.565,0.03494767
0.566,0.03537684
0.567,0.03583666
0.568,0.03626583
0.569,0.03672565
0.57,0.03715482
0.571,0.03761464
0.572,0.03807446
0.573,0.03850363
0.574,0.03896345
0.575,0.03942328
0.576,0.03985244
0.577,0.04031226
0.578,0.04077209
0.579,0.04123191
0.58,0.04166108
0.581,0.0421209
0.582,0.04258072
0.583,0.04304054
0.584,0.04350037
0.585,0.04396019
0.586,0.04438936
0.587,0.04484918
0.588,0.045309
0.589,0.04576882
0.59,0.04622864
0.591,0.04668847
0.592,0.04714829
0.593,0.04760811
0.594,0.04806793
0.595,0.04852776
0.596,0.04901823
0.597,0.04947806
0.598,0.04993788
0.599,0.0503977
0.6,0.05082687
0.601,0.05128669
0.602,0.05177717
0.603,0.05223699
0.604,0.05269681
0.605,0.05318729
0.606,0.05364711
0.607,0.05410693
0.608,0.05459742
0.609,0.05505724
0.61,0.05551706
0.611,0.05597688
0.612,0.05646735
0.613,0.05692718
0.614,0.05741766
0.615,0.05790814
0.616,0.0583373
0.617,0.05882778
0.618,0.05931826
0.619,0.05977808
0.62,0.0602379
0.621,0.06072838
0.622,0.0611882
0.623,0.06167868
0.624,0.06216915
0.625,0.06265964
0.626,0.06311946
0.627,0.06360994
0.628,0.06406976
0.629,0.06452958
0.63,0.06505071
0.631,0.06551053
0.632,0.06597035
0.633,0.06646083
0.634,0.06692065
0.635,0.06741113
0.636,0.0679016
0.637,0.06836143
0.638,0.06885191
0.639,0.06934239
0.64,0.06980221
0.641,0.07032334
0.642,0.07081382
0.643,0.07127364
0.644,0.07176412
0.645,0.07225459
0.646,0.07271441
0.647,0.07323555
0.648,0.07372602
0.649,0.07421651
0.65,0.07470698
0.651,0.07516681
0.652,0.07565728
0.653,0.07614776
0.654,0.07663824
0.655,0.07709806
0.656,0.07758854
0.657,0.07807901
0.658,0.07853883
0.659,0.07902931
0.66,0.07951979
0.661,0.07997961
0.662,0.08043943
0.663,0.08092991
0.664,0.08138973
0.665,0.08184955
0.666,0.08234003
0.667,0.08279985
0.668,0.08329033
0.669,0.08375015
0.67,0.08420997
0.671,0.0846698
0.672,0.08516028
0.673,0.0856201
0.674,0.08607992
0.675,0.08660105
0.676,0.08706088
0.677,0.08749004
0.678,0.08801118
0.679,0.08844034
0.68,0.08893082
0.681,0.08945195
0.682,0.08988111
0.683,0.09040225
0.684,0.09089272
0.685,0.09132189
0.686,0.09187368
0.687,0.09236415
0.688,0.09279333
0.689,0.09334511
0.69,0.09383559
0.691,0.09426476
0.692,0.09481654
0.693,0.09530702
0.694,0.0957975
0.695,0.09631863
0.696,0.09677845
0.697,0.09726893
0.698,0.09779006
0.699,0.09824988
0.7,0.09843381
0.6990001,0.09797399
0.6980001,0.09748352
0.6970001,0.09702369
0.6960001,0.09659453
0.6950001,0.09613471
0.6940001,0.09564423
0.6930001,0.09518441
0.6920001,0.09475523
0.6910001,0.09426476
0.6900001,0.09383559
0.6890001,0.09340642
0.6880001,0.09291594
0.6870001,0.09245612
0.6860001,0.09202696
0.6850001,0.09156714
0.6840001,0.09110731
0.6830001,0.09067815
0.6820001,0.09018766
0.6810001,0.08972784
0.6800001,0.08926802
0.6790001,0.0888082
0.6780001,0.08831772
0.6770001,0.08785789
0.6760001,0.08739807
0.6750001,0.08693825
0.6740001,0.08647843
0.6730001,0.08598796
0.6720001,0.08552813
0.6710001,0.08503766
0.6700001,0.08454718
0.6690001,0.08411801
0.6680001,0.08362754
0.6670001,0.08313706
0.6660001,0.08270789
0.6650001,0.08224807
0.6640001,0.08175759
0.6630001,0.08129777
0.6620001,0.08086859
0.6610001,0.08034747
0.6600001,0.0799183
0.6590001,0.07945848
0.6580001,0.078968
0.6570001,0.07850818
0.6560001,0.07804836
0.6550001,0.07758854
0.6540001,0.07712871
0.6530001,0.07666889
0.6520001,0.07617841
0.6510001,0.07571859
0.6500001,0.07528942
0.6490001,0.07479894
0.6480001,0.07433912
0.6470001,0.07387929
0.6460001,0.07341947
0.6450001,0.072929
0.6440001,0.07249983
0.6430001,0.07200935
0.6420001,0.07154953
0.6410001,0.07112037
0.6400001,0.07062989
0.6390001,0.07020072
0.6380001,0.0697409
0.6370001,0.06925042
0.6360001,0.0687906
0.6350001,0.06833078
0.6340001,0.06787095
0.6330001,0.06741113
0.6320001,0.06698196
0.6310001,0.06649148
0.6300001,0.06603166
0.6290001,0.0656025
0.6280001,0.06514268
0.6270001,0.0646522
0.6260001,0.06422303
0.6250001,0.06376321
0.6240001,0.06330338
0.6230001,0.06284356
0.6220001,0.06238374
0.6210001,0.06192392
0.6200001,0.0614641
0.6190001,0.06103493
0.6180001,0.06054445
0.6170001,0.06011529
0.6160001,0.05965546
0.6150001,0.05919564
0.6140001,0.05876647
0.6130001,0.05830665
0.6120001,0.05784683
0.6110001,0.05741766
0.6100001,0.05692718
0.6090001,0.05646735
0.6080001,0.05603819
0.6070001,0.05557837
0.6060001,0.0551492
0.6050001,0.05468938
0.6040001,0.05422956
0.6030001,0.05380039
0.6020001,0.05334057
0.6010001,0.05288074
0.6000001,0.05245158
0.5990001,0.05199176
0.5980001,0.05153193
0.5970001,0.05110276
0.5960001,0.05067359
0.5950001,0.05021377
0.5940001,0.0497846
0.5930001,0.04935544
0.5920001,0.04889562
0.5910001,0.04846645
0.5900001,0.04800662
0.5890001,0.0475468
0.5880001,0.04714829
0.5870001,0.04668847
0.5860001,0.04622864
0.5850001,0.04579948
0.5840001,0.04537031
0.5830001,0.04491049
0.5820001,0.04448132
0.5810001,0.04405215
0.5800001,0.04359233
0.5790001,0.04316316
0.5780001,0.04273399
0.5770001,0.04230483
0.5760001,0.04187566
0.5750001,0.04144649
0.5740001,0.04098667
0.5730001,0.0405575
0.5720001,0.04012834
0.5710001,0.03969917
0.5700001,0.03927
0.5690001,0.03884083
0.5680001,0.03841167
0.5670001,0.0379825
0.5660001,0.03755333
0.5650001,0.03712416
0.5640001,0.03666434
0.5630001,0.03626583
0.5620001,0.03583666
0.5610001,0.03540749
0.5600001,0.03500898
0.5590001,0.03454916
0.5580001,0.03415065
0.5570001,0.03372148
0.5560001,0.03329231
0.5550001,0.0328938
0.5540001,0.03246463
0.5530001,0.03203546
0.5520001,0.03163695
0.5510001,0.03120778
0.5500001,0.03077861
0.5490001,0.0303801
0.5480001,0.02995093
0.5470001,0.02955242
0.5460001,0.02915391
0.5450001,0.02872474
0.5440001,0.02832623
0.5430001,0.02789706
0.5420001,0.02749855
0.5410001,0.02710003
0.5400001,0.02670152
0.5390001,0.02630301
0.5380001,0.0259045
0.5370001,0.02550598
0.5360001,0.02507682
0.5350001,0.0246783
0.5340001,0.02427979
0.5330001,0.02388128
0.5320001,0.02351342
0.5310001,0.02311491
0.5300001,0.02271639
0.5290001,0.02231788
0.5280001,0.02191937
0.5270001,0.02155151
0.5260001,0.021153
0.5250001,0.02078514
0.5240001,0.02038663
0.5230001,0.02001877
0.5220001,0.01965091
0.5210001,0.0192524
0.5200001,0.01888454
0.5190001,0.01851668
0.5180001,0.01814882
0.5170001,0.01778097
0.5160001,0.01741311
0.5150001,0.01704525
0.5140001,0.01667739
0.5130001,0.01634019
0.5120001,0.01597233
0.5110001,0.01560447
0.5100001,0.01523662
0.5090001,0.01489941
0.5080001,0.01453156
0.5070001,0.01419435
0.5060001,0.01382649
0.5050001,0.01348929
0.5040001,0.01315209
0.5030001,0.01232336
0.5020001,0.01199535
0.5010001,0.01167041
0.5000001,0.01134547
0.4990001,0.01102053
0.4980001,0.01070478
0.4970001,0.01038904
0.4960001,0.01007636
0.4950001,0.009766744
0.4940001,0.009460196
0.4930001,0.009156713
0.4920001,0.008853231
0.4910001,0.008558944
0.4900001,0.008267723
0.4890001,0.007979568
0.4880001,0.007694478
0.4870001,0.007412454
0.4860001,0.00713656
0.4850001,0.006860667
0.4840001,0.006590905
0.4830001,0.006330338
0.4820001,0.006060576
0.4810001,0.005806141
0.4800001,0.005551706
0.4790001,0.00529727
0.4780001,0.005061228
0.4770001,0.004819056
0.4760001,0.004579948
0.4750001,0.004356168
0.4740001,0.004123191
0.4730001,0.003899411
0.4720001,0.003687892
0.4710001,0.003473309
0.4700001,0.003267921
0.4690001,0.003065599
0.4680001,0.002866343
0.4670001,0.002676283
0.4660001,0.002486223
0.4650001,0.00230536
0.4640001,0.002127562
0.4630001,0.001955895
0.4620001,0.001790359
0.4610001,0.001627888
0.4600001,0.001465417
0.4590001,0.001318274
0.4580001,0.001171131
0.4570001,0.0009959871
0.4560001,0.000862945
0.4550001,0.0007283704
0.4540001,0.0006011529
0.4530001,0.0004806794
0.4520001,0.0003611255
0.4510001,0.0002501551
0.4500001,0.0001407173
0.4490001,3.679747E-05
0.4480001,-6.701028E-05
0.4470001,-0.0001632051
0.4460001,-0.0002510312
0.4450001,-0.0003383668
0.4440001,-0.0004224119
0.4430001,-0.0004972096
0.4420001,-0.0005750729
0.4410001,-0.0006461921
0.4400001,-0.0007111803
0.4390001,-0.0007795406
0.4380001,-0.0008377847
0.4370001,-0.000896642
0.4360001,-0.0009533535
0.4350001,-0.001000255
0.4340001,-0.001052982
0.4330001,-0.001099271
0.4320001,-0.001140961
0.4310001,-0.001186637
0.4300001,-0.001223423
0.4290001,-0.001260821
0.4280001,-0.001297607
0.4270001,-0.001327956
0.4260001,-0.00136045
0.4250001,-0.001389265
0.4240001,-0.001415015
0.4230001,-0.001443524
0.4220001,-0.001467435
0.4210001,-0.0014892
0.4200001,-0.001512498
0.4190001,-0.001529358
0.4180001,-0.00154959
0.4170001,-0.001567983
0.4160001,-0.001582697
0.4150001,-0.001601703
0.4140001,-0.001613659
0.4130001,-0.00162776
0.4120001,-0.001643394
0.4110001,-0.001651977
0.4100001,-0.001670676
0.4090001,-0.001687843
0.4080001,-0.001690602
0.4070001,-0.001701331
0.4060001,-0.001707462
0.4050001,-0.001713287
0.4040001,-0.001722483
0.4030001,-0.001729227
0.4020001,-0.001735665
0.4010001,-0.001741489
0.4000001,-0.001746087
0.3990001,-0.001755284
0.3980001,-0.001758656
0.3970001,-0.0017654
0.3960001,-0.001771837
0.3950001,-0.001772144
0.3940001,-0.001779195
0.3930001,-0.00178226
0.3920001,-0.001783793
0.3910001,-0.00179207
0.3900001,-0.001792683
0.3890001,-0.001795135
0.3880001,-0.001801879
0.3870001,-0.001801266
0.3860001,-0.001806171
0.3850001,-0.00180801
0.3840001,-0.001807704
0.3830001,-0.001812608
0.3820001,-0.001812302
0.3810001,-0.001815061
0.3800001,-0.001818433
0.3790001,-0.00181782
0.3780001,-0.001821805
0.3770001,-0.001824257
0.3760001,-0.001823338
0.3750001,-0.001827323
0.3740001,-0.00182579
0.3730001,-0.001827629
0.3720001,-0.001829468
0.3710001,-0.001830082
0.3700001,-0.001832534
0.3690001,-0.001832534
0.3680001,-0.001831308
0.3670001,-0.001836213
0.3660001,-0.001832534
0.3650001,-0.001834373
0.3640001,-0.001838052
0.3630001,-0.001834373
0.3620001,-0.001837439
0.3610001,-0.001837439
0.3600001,-0.001835293
0.3590001,-0.001839891
0.3580001,-0.001841117
0.3570001,-0.001839891
0.3560001,-0.001841424
0.3550001,-0.001838665
0.3540001,-0.001839585
0.3530001,-0.001840811
0.3520001,-0.001840504
0.3510001,-0.001842957
0.3500001,-0.001840198
0.3490001,-0.001841117
0.3480001,-0.00184265
0.3470001,-0.001841424
0.3460001,-0.001844183
0.3450001,-0.001844796
0.3440001,-0.001842343
0.3430001,-0.001846022
0.3420001,-0.001844796
0.3410001,-0.001845409
