EXPID. 1149
[电化学]: CV : 0 >> 0.7 >> 0 >> 0(V) @ 0.01(V/s) X 10(Seg)
起始电位 (V),0
上限电位 (V),0.7
下限电位 (V),0
终止电位 (V),0
扫速 (V/s),0.01
电解液 信息:
KOH,1
0.001,1.753573E-05
0.002,1.854734E-05
0.003,1.931371E-05
0.004,2.004942E-05
0.005,2.069317E-05
0.006,2.133693E-05
0.007,2.195002E-05
0.008,2.250181E-05
0.009,2.311491E-05
0.01,2.363604E-05
0.011,2.415717E-05
0.012,2.483158E-05
0.013,2.532205E-05
0.014,2.593515E-05
0.015,2.648694E-05
0.016,2.697741E-05
0.017,2.755985E-05
0.018,2.817295E-05
0.019,2.860212E-05
0.02,2.924587E-05
0.021,2.9767E-05
0.022,3.025748E-05
0.023,3.077861E-05
0.024,3.13304E-05
0.025,3.185153E-05
0.026,3.240332E-05
0.027,3.292445E-05
0.028,3.344558E-05
0.029,3.402802E-05
0.03,3.454915E-05
0.031,3.51929E-05
0.032,3.5806E-05
0.033,3.644975E-05
0.034,3.703219E-05
0.035,3.758398E-05
0.036,3.822774E-05
0.037,3.884083E-05
0.038,3.939262E-05
0.039,4.012834E-05
0.04,4.068012E-05
0.041,4.129322E-05
0.042,4.205959E-05
0.043,4.267268E-05
0.044,4.350036E-05
0.045,4.429739E-05
0.046,4.503311E-05
0.047,4.589144E-05
0.048,4.665781E-05
0.049,4.736287E-05
0.05,4.825186E-05
0.051,4.904889E-05
0.052,4.993788E-05
0.053,5.082687E-05
0.054,5.165455E-05
0.055,5.272746E-05
0.056,5.364711E-05
0.057,5.475069E-05
0.058,5.594622E-05
0.059,5.698849E-05
0.06,5.827599E-05
0.061,5.934891E-05
0.062,6.054445E-05
0.063,6.192391E-05
0.064,6.315011E-05
0.065,6.449892E-05
0.066,6.590904E-05
0.067,6.731917E-05
0.068,6.897452E-05
0.069,7.066054E-05
0.07,7.23159E-05
0.071,7.418585E-05
0.072,7.593317E-05
0.073,7.77418E-05
0.074,7.970371E-05
0.075,8.166562E-05
0.076,8.381146E-05
0.077,8.59573E-05
0.078,8.81951E-05
0.079,9.07701E-05
0.08,9.334511E-05
0.081,9.601207E-05
0.082,9.870971E-05
0.083,0.0001014993
0.084,0.0001046261
0.085,0.0001076609
0.086,0.000110849
0.087,0.0001144356
0.088,0.0001179303
0.089,0.0001217315
0.09,0.0001259005
0.091,0.000129947
0.092,0.0001344839
0.093,0.0001390821
0.094,0.0001437723
0.095,0.0001488916
0.096,0.0001541336
0.097,0.0001596515
0.098,0.0001655372
0.099,0.0001715149
0.1,0.000178075
0.101,0.0001846045
0.102,0.0001918391
0.103,0.0001992575
0.104,0.0002069519
0.105,0.0002150754
0.106,0.0002236281
0.107,0.0002323341
0.108,0.0002418064
0.109,0.0002514934
0.11,0.0002614562
0.111,0.000272124
0.112,0.0002828226
0.113,0.0002941036
0.114,0.0003096254
0.115,0.0003215808
0.116,0.0003344558
0.117,0.0003473309
0.118,0.000360819
0.119,0.0003749202
0.12,0.000389328
0.121,0.0004043488
0.122,0.0004196763
0.123,0.0004350037
0.124,0.0004512507
0.125,0.0004674978
0.126,0.0004843579
0.127,0.0005015247
0.128,0.000518998
0.129,0.0005370842
0.13,0.0005554772
0.131,0.0005735635
0.132,0.0005925695
0.133,0.0006112689
0.134,0.0006302749
0.135,0.000649894
0.136,0.0006692066
0.137,0.0006888256
0.138,0.0007087513
0.139,0.0007283704
0.14,0.0007486026
0.141,0.0007682217
0.142,0.0007878407
0.143,0.0008080729
0.144,0.0008273855
0.145,0.0008473111
0.146,0.0008672367
0.147,0.0008868558
0.148,0.000907088
0.149,0.0009264006
0.15,0.0009460197
0.151,0.0009659453
0.152,0.0009852578
0.153,0.00100549
0.154,0.001026029
0.155,0.001045954
0.156,0.001067413
0.157,0.001088258
0.158,0.001109716
0.159,0.001132401
0.16,0.001154779
0.161,0.001178383
0.162,0.001202907
0.163,0.001228044
0.164,0.001254407
0.165,0.001281383
0.166,0.001310199
0.167,0.001339934
0.168,0.001370282
0.169,0.001403083
0.17,0.001436803
0.171,0.001471443
0.172,0.001509149
0.173,0.001547161
0.174,0.001586706
0.175,0.001629009
0.176,0.001671619
0.177,0.001716682
0.178,0.001763584
0.179,0.001811405
0.18,0.001862599
0.181,0.001914099
0.182,0.001968052
0.183,0.002024457
0.184,0.002081474
0.185,0.002141558
0.186,0.002203481
0.187,0.002266936
0.188,0.002333457
0.189,0.002400285
0.19,0.002469871
0.191,0.00254191
0.192,0.002615482
0.193,0.002691812
0.194,0.002769675
0.195,0.002849071
0.196,0.002933372
0.197,0.00301614
0.198,0.003136105
0.199,0.003225004
0.2,0.003313903
0.201,0.003405868
0.202,0.003503963
0.203,0.003598993
0.204,0.003700154
0.205,0.003804381
0.206,0.003911673
0.207,0.004018964
0.208,0.004129322
0.209,0.004242745
0.21,0.004356168
0.211,0.004475721
0.212,0.004595275
0.213,0.00472096
0.214,0.004843579
0.215,0.004975395
0.216,0.005104146
0.217,0.005235961
0.218,0.005376973
0.219,0.00551492
0.22,0.005658998
0.221,0.005803075
0.222,0.005950219
0.223,0.006103492
0.224,0.006256767
0.225,0.006416172
0.226,0.006575576
0.227,0.006738048
0.228,0.006903583
0.229,0.007072185
0.23,0.007243852
0.231,0.007418585
0.232,0.007593317
0.233,0.007774181
0.234,0.007958109
0.235,0.008138973
0.236,0.008329033
0.237,0.008516028
0.238,0.008709153
0.239,0.008905343
0.24,0.009098469
0.241,0.009297726
0.242,0.009496982
0.243,0.009696238
0.244,0.009901625
0.245,0.01010395
0.246,0.01030933
0.247,0.01051472
0.248,0.01072011
0.249,0.01093163
0.25,0.01113701
0.251,0.0113424
0.252,0.01155392
0.253,0.01175931
0.254,0.01196469
0.255,0.01217315
0.256,0.0123816
0.257,0.01258392
0.258,0.01279237
0.259,0.01299163
0.26,0.01319089
0.261,0.01339014
0.262,0.0135894
0.263,0.01378253
0.264,0.01397259
0.265,0.01416571
0.266,0.01434657
0.267,0.01452744
0.268,0.0147083
0.269,0.01488303
0.27,0.0150547
0.271,0.0152233
0.272,0.01538271
0.273,0.01554518
0.274,0.01569845
0.275,0.01584559
0.276,0.0159958
0.277,0.01612762
0.278,0.01625944
0.279,0.01639125
0.28,0.01651081
0.281,0.01662423
0.282,0.01673765
0.283,0.01683881
0.284,0.01693691
0.285,0.01702887
0.286,0.01711164
0.287,0.01718828
0.288,0.01726185
0.289,0.01733235
0.29,0.01738753
0.291,0.01744271
0.292,0.01749483
0.293,0.01752548
0.294,0.01756226
0.295,0.01758985
0.296,0.01760212
0.297,0.01761745
0.298,0.01762051
0.299,0.01761131
0.3,0.01760212
0.301,0.01757453
0.302,0.01753774
0.303,0.01749483
0.304,0.01743351
0.305,0.01736608
0.306,0.01728637
0.307,0.01719747
0.308,0.01709325
0.309,0.01697676
0.31,0.01685107
0.311,0.01671006
0.312,0.01655679
0.313,0.01640045
0.314,0.01622572
0.315,0.01605098
0.316,0.01586705
0.317,0.0156678
0.318,0.01547161
0.319,0.01526929
0.32,0.0150639
0.321,0.01486158
0.322,0.01465006
0.323,0.01443854
0.324,0.01423928
0.325,0.01402776
0.326,0.01382238
0.327,0.01362619
0.328,0.01342386
0.329,0.01323074
0.33,0.01304068
0.331,0.01285062
0.332,0.01266976
0.333,0.01248583
0.334,0.01230496
0.335,0.01213636
0.336,0.01196469
0.337,0.01179916
0.338,0.01163669
0.339,0.01147728
0.34,0.01132401
0.341,0.01117073
0.342,0.01102053
0.343,0.01087338
0.344,0.01072931
0.345,0.01059136
0.346,0.01045035
0.347,0.01031546
0.348,0.01018672
0.349,0.01005183
0.35,0.009926149
0.351,0.009800464
0.352,0.009674779
0.353,0.009558291
0.354,0.009435672
0.355,0.009319183
0.356,0.009208826
0.357,0.009095403
0.358,0.008985046
0.359,0.008883885
0.36,0.008770462
0.361,0.008669301
0.362,0.008574272
0.363,0.008470045
0.364,0.008375015
0.365,0.008283051
0.366,0.00818802
0.367,0.008096056
0.368,0.008007158
0.369,0.007924389
0.37,0.00783549
0.371,0.007755788
0.372,0.007676085
0.373,0.007593317
0.374,0.00751668
0.375,0.007443109
0.376,0.007363406
0.377,0.007299031
0.378,0.007228524
0.379,0.007151887
0.38,0.007093643
0.381,0.007023137
0.382,0.006958762
0.383,0.006900518
0.384,0.006833077
0.385,0.006774833
0.386,0.006719654
0.387,0.006658345
0.388,0.006606232
0.389,0.006551053
0.39,0.00649894
0.391,0.006449892
0.392,0.006394713
0.393,0.006348731
0.394,0.006299683
0.395,0.006250636
0.396,0.006204653
0.397,0.006158671
0.398,0.006112689
0.399,0.006069772
0.4,0.00602379
0.401,0.005983938
0.402,0.005944087
0.403,0.005901171
0.404,0.005864385
0.405,0.005824534
0.406,0.005784682
0.407,0.005747896
0.408,0.005711111
0.409,0.005683521
0.41,0.005652867
0.411,0.00561608
0.412,0.005585426
0.413,0.005545575
0.414,0.00551492
0.415,0.005484265
0.416,0.005450545
0.417,0.005422956
0.418,0.005395366
0.419,0.005361645
0.42,0.005337122
0.421,0.005306467
0.422,0.005281943
0.423,0.005257419
0.424,0.00522983
0.425,0.005205306
0.426,0.005183848
0.427,0.005156258
0.428,0.005137865
0.429,0.005113342
0.43,0.005088818
0.431,0.005070425
0.432,0.005045901
0.433,0.005027508
0.434,0.00500605
0.435,0.004987657
0.436,0.004972329
0.437,0.004950871
0.438,0.004935544
0.439,0.004920216
0.44,0.004901823
0.441,0.004889561
0.442,0.004874234
0.443,0.004855841
0.444,0.00484971
0.445,0.004831317
0.446,0.004819056
0.447,0.004809859
0.448,0.004800662
0.449,0.004791466
0.45,0.00478227
0.451,0.004773073
0.452,0.004770007
0.453,0.004763877
0.454,0.004757746
0.455,0.004757746
0.456,0.004751615
0.457,0.00475468
0.458,0.00475468
0.459,0.004757746
0.46,0.004763877
0.461,0.004770007
0.462,0.004779204
0.463,0.004791466
0.464,0.004800662
0.465,0.004822121
0.466,0.004840514
0.467,0.004858906
0.468,0.004889561
0.469,0.004914085
0.47,0.00494474
0.471,0.004984592
0.472,0.005021377
0.473,0.005067359
0.474,0.005119473
0.475,0.005174651
0.476,0.005235961
0.477,0.005300336
0.478,0.005373908
0.479,0.00545361
0.48,0.005542509
0.481,0.005637539
0.482,0.005735634
0.483,0.005842926
0.484,0.00596248
0.485,0.006082034
0.486,0.006216915
0.487,0.006357928
0.488,0.006502005
0.489,0.006664475
0.49,0.006833077
0.491,0.00700781
0.492,0.007194804
0.493,0.00738793
0.494,0.007590252
0.495,0.007804835
0.496,0.008022484
0.497,0.00824933
0.498,0.008485372
0.499,0.008730611
0.5,0.008985046
0.501,0.009242547
0.502,0.009512309
0.503,0.009785137
0.504,0.0100641
0.505,0.01035532
0.506,0.0106496
0.507,0.01094695
0.508,0.01125657
0.509,0.01156312
0.51,0.01188499
0.511,0.01220687
0.512,0.01253794
0.513,0.01287514
0.514,0.01320928
0.515,0.01354955
0.516,0.01389901
0.517,0.01424541
0.518,0.01459794
0.519,0.01495967
0.52,0.01531833
0.521,0.01568313
0.522,0.01605098
0.523,0.01642191
0.524,0.01679283
0.525,0.01717295
0.526,0.01755307
0.527,0.01793319
0.528,0.01831638
0.529,0.01870876
0.53,0.01909501
0.531,0.01948739
0.532,0.0198859
0.533,0.02027522
0.534,0.0206768
0.535,0.02107838
0.536,0.02147382
0.537,0.02188153
0.538,0.02228618
0.539,0.02269082
0.54,0.02310466
0.541,0.02351543
0.542,0.02392314
0.543,0.02434311
0.544,0.02475695
0.545,0.0251708
0.546,0.02559076
0.547,0.02601074
0.548,0.02643071
0.549,0.02685374
0.55,0.02727985
0.551,0.02770288
0.552,0.02812592
0.553,0.02855509
0.554,0.02898119
0.555,0.02941036
0.556,0.02984565
0.557,0.03105451
0.558,0.03145302
0.559,0.03191284
0.56,0.03234201
0.561,0.03277118
0.562,0.03320035
0.563,0.03366017
0.564,0.03411999
0.565,0.03454916
0.566,0.03497833
0.567,0.03543815
0.568,0.03586731
0.569,0.03632713
0.57,0.03678696
0.571,0.03721613
0.572,0.03767595
0.573,0.03813577
0.574,0.03856494
0.575,0.03902476
0.576,0.03948459
0.577,0.03994441
0.578,0.04037357
0.579,0.04083339
0.58,0.04129322
0.581,0.04172239
0.582,0.04221286
0.583,0.04264203
0.584,0.04310185
0.585,0.04356168
0.586,0.0440215
0.587,0.04448132
0.588,0.04494114
0.589,0.04540097
0.59,0.04586079
0.591,0.04632061
0.592,0.04678043
0.593,0.04724025
0.594,0.04770008
0.595,0.0481599
0.596,0.04861972
0.597,0.0491102
0.598,0.04957002
0.599,0.05002984
0.6,0.05045901
0.601,0.05094949
0.602,0.05140931
0.603,0.05186913
0.604,0.05232896
0.605,0.05281943
0.606,0.05327926
0.607,0.05373908
0.608,0.05422956
0.609,0.05468938
0.61,0.0551492
0.611,0.05563968
0.612,0.0560995
0.613,0.05655932
0.614,0.05701914
0.615,0.05750962
0.616,0.05796945
0.617,0.05845992
0.618,0.05891975
0.619,0.05937957
0.62,0.05987004
0.621,0.06036052
0.622,0.06082034
0.623,0.06128017
0.624,0.06177064
0.625,0.06223046
0.626,0.06272095
0.627,0.06318077
0.628,0.06367125
0.629,0.06413107
0.63,0.06462154
0.631,0.06511202
0.632,0.06557184
0.633,0.06603166
0.634,0.06652214
0.635,0.06698196
0.636,0.06747244
0.637,0.06793226
0.638,0.06842274
0.639,0.06891321
0.64,0.06937304
0.641,0.06986352
0.642,0.07035399
0.643,0.07081382
0.644,0.07130429
0.645,0.07176412
0.646,0.07225459
0.647,0.07274507
0.648,0.0732049
0.649,0.07369537
0.65,0.07418585
0.651,0.07464567
0.652,0.07513615
0.653,0.07559597
0.654,0.07608645
0.655,0.07657693
0.656,0.07703675
0.657,0.07755788
0.658,0.07804836
0.659,0.07847752
0.66,0.078968
0.661,0.07945848
0.662,0.0799183
0.663,0.08040877
0.664,0.08089925
0.665,0.08135908
0.666,0.08184955
0.667,0.08234003
0.668,0.08279985
0.669,0.08329033
0.67,0.08378081
0.671,0.08427128
0.672,0.08473111
0.673,0.08525224
0.674,0.08571207
0.675,0.08620254
0.676,0.08669301
0.677,0.0871835
0.678,0.08767397
0.679,0.08816445
0.68,0.08865493
0.681,0.08911475
0.682,0.08960523
0.683,0.0900957
0.684,0.09058618
0.685,0.09107666
0.686,0.09156714
0.687,0.09205761
0.688,0.09254809
0.689,0.09303857
0.69,0.09352904
0.691,0.09401952
0.692,0.09454065
0.693,0.09500048
0.694,0.09552161
0.695,0.09601208
0.696,0.09647191
0.697,0.09699304
0.698,0.09748352
0.699,0.09797399
0.7,0.09812727
0.6990001,0.09763679
0.6980001,0.09717696
0.6970001,0.09671714
0.6960001,0.09625732
0.6950001,0.09576684
0.6940001,0.09527637
0.6930001,0.09481654
0.6920001,0.09432607
0.6910001,0.09386625
0.6900001,0.09337576
0.6890001,0.09288529
0.6880001,0.09242547
0.6870001,0.09193499
0.6860001,0.09144451
0.6850001,0.09098469
0.6840001,0.09049422
0.6830001,0.09000374
0.6820001,0.08954392
0.6810001,0.08905344
0.6800001,0.08856296
0.6790001,0.08807249
0.6780001,0.08758201
0.6770001,0.08709153
0.6760001,0.08663171
0.6750001,0.08614123
0.6740001,0.08565076
0.6730001,0.08519093
0.6720001,0.08470046
0.6710001,0.08420997
0.6700001,0.0837195
0.6690001,0.08322902
0.6680001,0.0827692
0.6670001,0.08227872
0.6660001,0.08178824
0.6650001,0.08129777
0.6640001,0.08083794
0.6630001,0.08034747
0.6620001,0.07985699
0.6610001,0.07939716
0.6600001,0.07890669
0.6590001,0.07841621
0.6580001,0.07795639
0.6570001,0.07746591
0.6560001,0.07697544
0.6550001,0.07648496
0.6540001,0.07602514
0.6530001,0.07553466
0.6520001,0.07507484
0.6510001,0.07458436
0.6500001,0.07412454
0.6490001,0.07366472
0.6480001,0.07317424
0.6470001,0.07268376
0.6460001,0.07222394
0.6450001,0.07176412
0.6440001,0.07127364
0.6430001,0.07084447
0.6420001,0.07035399
0.6410001,0.06989417
0.6400001,0.06943435
0.6390001,0.06894387
0.6380001,0.06848405
0.6370001,0.06802423
0.6360001,0.06756441
0.6350001,0.06710459
0.6340001,0.06664476
0.6330001,0.06618494
0.6320001,0.06572511
0.6310001,0.06526529
0.6300001,0.06480547
0.6290001,0.06434565
0.6280001,0.06388583
0.6270001,0.063426
0.6260001,0.06296618
0.6250001,0.06250636
0.6240001,0.06204654
0.6230001,0.06158672
0.6220001,0.06112689
0.6210001,0.06066707
0.6200001,0.06020725
0.6190001,0.05974742
0.6180001,0.05931826
0.6170001,0.05885844
0.6160001,0.05839861
0.6150001,0.05793879
0.6140001,0.05747896
0.6130001,0.05701914
0.6120001,0.05655932
0.6110001,0.05613015
0.6100001,0.05567033
0.6090001,0.05521051
0.6080001,0.05475069
0.6070001,0.05429087
0.6060001,0.0538617
0.6050001,0.05340188
0.6040001,0.05294205
0.6030001,0.05248223
0.6020001,0.05202241
0.6010001,0.05159324
0.6000001,0.05113342
0.5990001,0.05067359
0.5980001,0.05024443
0.5970001,0.0497846
0.5960001,0.04935544
0.5950001,0.04889562
0.5940001,0.04843579
0.5930001,0.04800662
0.5920001,0.0475468
0.5910001,0.04711764
0.5900001,0.04665781
0.5890001,0.04622864
0.5880001,0.04576882
0.5870001,0.04533966
0.5860001,0.04487984
0.5850001,0.04442001
0.5840001,0.04399084
0.5830001,0.04356168
0.5820001,0.04310185
0.5810001,0.04267269
0.5800001,0.04221286
0.5790001,0.0417837
0.5780001,0.04132387
0.5770001,0.04089471
0.5760001,0.04043488
0.5750001,0.04000572
0.5740001,0.03957655
0.5730001,0.03911673
0.5720001,0.03868756
0.5710001,0.03825839
0.5700001,0.03782922
0.5690001,0.0373694
0.5680001,0.03694023
0.5670001,0.03651107
0.5660001,0.0360819
0.5650001,0.03565273
0.5640001,0.03522356
0.5630001,0.0347944
0.5620001,0.03436523
0.5610001,0.03393606
0.5600001,0.03350689
0.5590001,0.03307773
0.5580001,0.03264856
0.5570001,0.03221939
0.5560001,0.03179022
0.5550001,0.03136105
0.5540001,0.03096254
0.5530001,0.03053337
0.5520001,0.03010421
0.5510001,0.02967504
0.5500001,0.02924587
0.5490001,0.0288167
0.5480001,0.02841819
0.5470001,0.02798902
0.5460001,0.02759051
0.5450001,0.02716134
0.5440001,0.02676283
0.5430001,0.02633366
0.5420001,0.02593515
0.5410001,0.02553664
0.5400001,0.02510747
0.5390001,0.02470896
0.5380001,0.02431045
0.5370001,0.02388128
0.5360001,0.02348276
0.5350001,0.02308425
0.5340001,0.02268574
0.5330001,0.02228723
0.5320001,0.02188871
0.5310001,0.0214902
0.5300001,0.02109169
0.5290001,0.02069318
0.5280001,0.02029466
0.5270001,0.01992681
0.5260001,0.01952829
0.5250001,0.01912978
0.5240001,0.01876192
0.5230001,0.01839406
0.5220001,0.01799555
0.5210001,0.01762769
0.5200001,0.01725983
0.5190001,0.01689198
0.5180001,0.01652412
0.5170001,0.01615626
0.5160001,0.01575775
0.5150001,0.01542055
0.5140001,0.01505269
0.5130001,0.01468483
0.5120001,0.01431697
0.5110001,0.01394911
0.5100001,0.01361191
0.5090001,0.01324405
0.5080001,0.01240919
0.5070001,0.01207812
0.5060001,0.01173785
0.5050001,0.01140065
0.5040001,0.01107571
0.5030001,0.01074463
0.5020001,0.01041969
0.5010001,0.01010088
0.5000001,0.009782071
0.4990001,0.009466327
0.4980001,0.009153648
0.4970001,0.0088471
0.4960001,0.008543616
0.4950001,0.008243199
0.4940001,0.007948913
0.4930001,0.007654627
0.4920001,0.007366471
0.4910001,0.007087512
0.4900001,0.006805488
0.4890001,0.006529594
0.4880001,0.006262898
0.4870001,0.005993135
0.4860001,0.005732569
0.4850001,0.005478134
0.4840001,0.005223699
0.4830001,0.004981526
0.4820001,0.004739353
0.4810001,0.004500245
0.4800001,0.004270334
0.4790001,0.004040423
0.4780001,0.003822774
0.4770001,0.00360819
0.4760001,0.003396671
0.4750001,0.00319435
0.4740001,0.002992028
0.4730001,0.002798902
0.4720001,0.002614973
0.4710001,0.002427979
0.4700001,0.002256312
0.4690001,0.002084645
0.4680001,0.001919109
0.4670001,0.001762769
0.4660001,0.00160643
0.4650001,0.001459286
0.4640001,0.001318274
0.4630001,0.001177262
0.4620001,0.001015913
0.4610001,0.0008902278
0.4600001,0.0007679151
0.4590001,0.000656025
0.4580001,0.0005441349
0.4570001,0.0004389888
0.4560001,0.0003411999
0.4550001,0.0002421848
0.4540001,0.0001526727
0.4530001,6.622611E-05
0.4520001,-2.203965E-05
0.4510001,-9.594844E-05
0.4500001,-0.0001718804
0.4490001,-0.0002411603
0.4480001,-0.0003059033
0.4470001,-0.0003712183
0.4460001,-0.0004254773
0.4450001,-0.0004794298
0.4440001,-0.0005349151
0.4430001,-0.0005805907
0.4420001,-0.0006296384
0.4410001,-0.0006747011
0.4400001,-0.0007127131
0.4390001,-0.0007547102
0.4380001,-0.0007899632
0.4370001,-0.000823377
0.4360001,-0.0008574039
0.4350001,-0.0008856063
0.4340001,-0.0009159546
0.4330001,-0.0009426242
0.4320001,-0.0009668416
0.4310001,-0.0009928982
0.4300001,-0.001013437
0.4290001,-0.001036428
0.4280001,-0.001057887
0.4270001,-0.001073214
0.4260001,-0.001094366
0.4250001,-0.001110306
0.4240001,-0.001124101
0.4230001,-0.001143413
0.4220001,-0.001156902
0.4210001,-0.00116855
0.4200001,-0.001184491
0.4190001,-0.001193687
0.4180001,-0.001207175
0.4170001,-0.001219131
0.4160001,-0.001228327
0.4150001,-0.001240589
0.4140001,-0.001248866
0.4130001,-0.001258369
0.4120001,-0.001269711
0.4110001,-0.001276149
0.4100001,-0.001292089
0.4090001,-0.001303432
0.4080001,-0.001306497
0.4070001,-0.001315694
0.4060001,-0.001319679
0.4050001,-0.001327036
0.4040001,-0.001336232
0.4030001,-0.001341444
0.4020001,-0.001350334
0.4010001,-0.001357078
0.4000001,-0.001361369
0.3990001,-0.001371792
0.3980001,-0.001376084
0.3970001,-0.001383441
0.3960001,-0.001393557
0.3950001,-0.001396009
0.3940001,-0.001404286
0.3930001,-0.001411643
0.3920001,-0.001415322
0.3910001,-0.001425438
0.3900001,-0.001431569
0.3890001,-0.00143678
0.3880001,-0.001445057
0.3870001,-0.001450268
0.3860001,-0.001458545
0.3850001,-0.001465289
0.3840001,-0.001469581
0.3830001,-0.001479084
0.3820001,-0.001483682
0.3810001,-0.001491959
0.3800001,-0.001501155
0.3790001,-0.001504527
0.3780001,-0.001514337
0.3770001,-0.001522307
0.3760001,-0.001525679
0.3750001,-0.001537635
0.3740001,-0.001543459
0.3730001,-0.001549896
0.3720001,-0.001560319
0.3710001,-0.001567063
0.3700001,-0.00157534
0.3690001,-0.001583004
0.3680001,-0.001589135
0.3670001,-0.00160017
0.3660001,-0.001606608
0.3650001,-0.001615804
0.3640001,-0.001625921
0.3630001,-0.001632051
0.3620001,-0.001642168
0.3610001,-0.001651364
0.3600001,-0.001657801
0.3590001,-0.00167129
0.3580001,-0.001679873
0.3570001,-0.001687843
0.3560001,-0.001698879
0.3550001,-0.00170593
0.3540001,-0.001716965
0.3530001,-0.001727081
