EXPID. 1251
[电化学]: i-t : @ 0(V) X 600(sec)
起始电位 (V),0
静置时间 (秒),0
运行时间 (秒),600
记录间隔,0.1
电解液 信息:
HNO3,0.4
0.1,-0.01005814
0.2,-0.006781031
0.3,-0.005151893
0.4,-0.003995774
0.5,-0.003532623
0.6,-0.003397982
0.7,-0.003295059
0.8000001,-0.003154537
0.9000001,-0.003011247
1,-0.002879166
1.1,-0.002756986
1.2,-0.002644684
1.3,-0.002544497
1.4,-0.002452234
1.5,-0.002365804
1.6,-0.002289814
1.7,-0.002218163
1.8,-0.002152002
1.9,-0.00209224
2,-0.0020358
2.1,-0.001984355
2.2,-0.001937493
2.3,-0.001892103
2.4,-0.001851306
2.5,-0.001813493
2.6,-0.00177725
2.7,-0.001743821
2.799999,-0.001713266
2.899999,-0.001683438
2.999999,-0.001655906
3.099999,-0.001630258
3.199999,-0.001605205
3.299999,-0.001582041
3.399999,-0.001559775
3.499999,-0.001538364
3.599999,-0.001518786
3.699999,-0.00149899
3.799999,-0.001480266
3.899998,-0.001462994
3.999998,-0.001445929
4.099998,-0.00142894
4.199998,-0.001413771
4.299998,-0.001398405
4.399998,-0.001383276
4.499998,-0.001369642
4.599998,-0.001355262
4.699998,-0.001341933
4.799998,-0.001329051
4.899998,-0.001316259
4.999998,-0.00130417
5.099998,-0.001292249
5.199997,-0.001280398
5.299997,-0.001269239
5.399997,-0.001258073
5.499997,-0.001247413
5.599997,-0.001236899
5.699997,-0.00122683
5.799997,-0.001216668
5.899997,-0.001206926
5.999997,-0.00119709
6.099997,-0.001187641
6.199996,-0.001178607
6.299996,-0.001169263
6.399996,-0.001160401
6.499996,-0.001151799
6.599996,-0.001143007
6.699996,-0.001134726
6.799996,-0.001126385
6.899996,-0.001118358
6.999996,-0.001110275
7.099996,-0.001102266
7.199996,-0.001094718
7.299995,-0.001086871
7.399995,-0.001079527
7.499995,-0.001072099
7.599995,-0.001064734
7.699995,-0.001057765
7.799995,-0.00105073
7.899995,-0.001043877
7.999995,-0.001036878
8.099995,-0.001030361
8.199995,-0.001023635
8.299995,-0.001016988
8.399996,-0.001010841
8.499996,-0.001004405
8.599997,-0.0009978216
8.699997,-0.0009919566
8.799997,-0.0009856874
8.899998,-0.0009793976
8.999998,-0.000973751
9.099998,-0.0009677917
9.199999,-0.0009618023
9.299999,-0.0009561396
9.4,-0.0009506399
9.5,-0.0009446967
9.6,-0.0009392893
9.700001,-0.0009339458
9.800001,-0.0009283049
9.900002,-0.0009231772
10,-0.0009177905
10.1,-0.0009125855
10.2,-0.0009075934
10.3,-0.0009023639
10.4,-0.0008972249
10.5,-0.0008923656
10.6,-0.0008873781
10.7,-0.0008824266
10.8,-0.0008778441
10.90001,-0.0008728577
11.00001,-0.0008682563
11.10001,-0.0008633452
11.20001,-0.0008587891
11.30001,-0.0008542377
11.40001,-0.0008497428
11.50001,-0.00084515
11.60001,-0.0008406758
11.70001,-0.000836166
11.80001,-0.0008318264
11.90001,-0.0008274935
12.00001,-0.0008232021
12.10001,-0.0008189218
12.20001,-0.0008147575
12.30001,-0.0008105743
12.40001,-0.0008064222
12.50001,-0.0008023926
12.60001,-0.0007981068
12.70001,-0.0007940102
12.80001,-0.0007900945
12.90001,-0.0007859537
13.00001,-0.0007822132
13.10001,-0.0007782767
13.20001,-0.0007742668
13.30001,-0.0007704679
13.40001,-0.000766813
13.50002,-0.0007628606
13.60002,-0.0007591003
13.70002,-0.000755469
13.80002,-0.0007517416
13.90002,-0.0007481818
14.00002,-0.0007445345
14.10002,-0.0007407082
14.20002,-0.0007372408
14.30002,-0.0007337535
14.40002,-0.0007301288
14.50002,-0.0007265427
14.60002,-0.0007232174
14.70002,-0.0007195909
14.80002,-0.0007162873
14.90002,-0.0007128528
15.00002,-0.0007094258
15.10002,-0.0007061241
15.20002,-0.0007028441
15.30002,-0.0006995291
15.40002,-0.0006962849
15.50002,-0.0006930642
15.60002,-0.0006898623
15.70002,-0.0006866651
15.80002,-0.0006835046
15.90002,-0.0006804016
16.00002,-0.0006772318
16.10003,-0.0006742738
16.20003,-0.0006712489
16.30003,-0.0006680556
16.40003,-0.0006651362
16.50003,-0.0006621716
16.60003,-0.0006590027
16.70003,-0.000656138
16.80003,-0.0006532883
16.90003,-0.0006502606
17.00003,-0.0006473205
17.10003,-0.0006444501
17.20003,-0.000641559
17.30003,-0.0006386792
17.40003,-0.0006358144
17.50003,-0.0006328762
17.60003,-0.0006301451
17.70003,-0.0006273426
17.80003,-0.0006245193
17.90003,-0.0006218213
18.00003,-0.0006190356
18.10003,-0.0006165475
18.20003,-0.0006138834
18.30003,-0.0006111655
18.40003,-0.0006085137
18.50003,-0.0006060076
18.60003,-0.000603303
18.70004,-0.0006006549
18.80004,-0.0005982912
18.90004,-0.0005956148
19.00004,-0.0005930947
19.10004,-0.0005906744
19.20004,-0.0005880451
19.30004,-0.0005855344
19.40004,-0.0005832168
19.50004,-0.0005805838
19.60004,-0.0005782502
19.70004,-0.0005759797
19.80004,-0.0005734822
19.90004,-0.000570979
20.00004,-0.0005686907
20.10004,-0.0005662506
20.20004,-0.0005639
20.30004,-0.0005616182
20.40004,-0.0005591857
20.50004,-0.0005568465
20.60004,-0.0005545986
20.70004,-0.0005523422
20.80004,-0.0005499314
20.90004,-0.0005478247
21.00004,-0.0005455768
21.10004,-0.000543246
21.20004,-0.000541129
21.30005,-0.0005389235
21.40005,-0.0005367688
21.50005,-0.0005345821
21.60005,-0.0005324217
21.70005,-0.0005302699
21.80005,-0.0005281256
21.90005,-0.0005260829
22.00005,-0.0005239678
22.10005,-0.0005218716
22.20005,-0.0005197536
22.30005,-0.0005177081
22.40005,-0.0005156976
22.50005,-0.0005137604
22.60005,-0.0005117545
22.70005,-0.0005096375
22.80005,-0.0005076796
22.90005,-0.0005057236
23.00005,-0.0005037677
23.10005,-0.0005019256
23.20005,-0.0004999565
23.30005,-0.0004979422
23.40005,-0.0004960521
23.50005,-0.0004941497
23.60005,-0.0004922785
23.70005,-0.0004903838
23.80005,-0.0004885257
23.90005,-0.0004866037
24.00006,-0.0004847871
24.10006,-0.0004828678
24.20006,-0.0004811106
24.30006,-0.0004793637
24.40006,-0.0004775038
24.50006,-0.0004757427
24.60006,-0.0004739816
24.70006,-0.0004721566
24.80006,-0.0004705132
24.90006,-0.0004688812
25.00006,-0.0004671183
25.10006,-0.0004654599
25.20006,-0.0004637865
25.30006,-0.0004620763
25.40006,-0.0004603765
25.50006,-0.000458655
25.60006,-0.0004570004
25.70006,-0.0004553674
25.80006,-0.0004536459
25.90006,-0.0004520045
26.00006,-0.0004504355
26.10006,-0.0004487226
26.20006,-0.0004471225
26.30006,-0.0004455178
26.40006,-0.0004437775
26.50006,-0.0004423527
26.60007,-0.0004409815
26.70007,-0.0004392336
26.80007,-0.0004376487
26.90007,-0.0004361825
27.00007,-0.0004345344
27.10007,-0.0004330333
27.20007,-0.0004315058
27.30007,-0.0004298879
27.40007,-0.0004283783
27.50007,-0.0004268772
27.60007,-0.0004253045
27.70007,-0.0004237723
27.80007,-0.0004223456
27.90007,-0.0004208219
28.00007,-0.0004193565
28.10007,-0.0004179675
28.20007,-0.0004164202
28.30007,-0.0004150057
28.40007,-0.0004135979
28.50007,-0.0004120873
28.60007,-0.0004107623
28.70007,-0.0004093968
28.80007,-0.0004078844
28.90007,-0.0004065603
29.00007,-0.0004051533
29.10007,-0.0004036993
29.20008,-0.0004023272
29.30008,-0.0004009495
29.40008,-0.0003995651
29.50008,-0.000398225
29.60008,-0.0003968972
29.70008,-0.0003955307
29.80008,-0.0003942679
29.90008,-0.0003929749
30.00008,-0.0003916075
30.10008,-0.0003902693
30.20008,-0.0003890196
30.30008,-0.0003877671
30.40008,-0.0003865014
30.50008,-0.0003851934
30.60008,-0.0003839625
30.70008,-0.0003827091
30.80008,-0.0003815017
30.90008,-0.0003801899
31.00008,-0.0003789751
31.10008,-0.0003777188
31.20008,-0.0003764946
31.30008,-0.0003752685
31.40008,-0.0003741157
31.50008,-0.0003728868
31.60008,-0.0003717275
31.70008,-0.000370459
31.80009,-0.0003693289
31.90009,-0.0003681442
32.00008,-0.0003669935
32.10008,-0.0003657551
32.20008,-0.0003646174
32.30008,-0.0003634845
32.40008,-0.0003623526
32.50008,-0.0003611943
32.60007,-0.0003600793
32.70007,-0.0003589021
32.80007,-0.0003578144
32.90007,-0.0003567079
33.00007,-0.0003556183
33.10007,-0.0003545051
33.20007,-0.0003534203
33.30006,-0.0003523335
33.40006,-0.0003512411
33.50006,-0.0003501892
33.60006,-0.0003491307
33.70006,-0.0003480242
33.80006,-0.000347024
33.90005,-0.0003459618
34.00005,-0.0003449645
34.10005,-0.0003439578
34.20005,-0.0003428295
34.30005,-0.0003418709
34.40005,-0.00034085
34.50005,-0.0003398226
34.60004,-0.000338831
34.70004,-0.0003378149
34.80004,-0.000336827
34.90004,-0.0003358288
35.00004,-0.0003348079
35.10004,-0.0003338812
35.20004,-0.000332883
35.30003,-0.000331978
35.40003,-0.0003309901
35.50003,-0.0003299796
35.60003,-0.0003290266
35.70003,-0.000328099
35.80003,-0.0003270782
35.90002,-0.0003261317
36.00002,-0.0003252352
36.10002,-0.0003241852
36.20002,-0.0003232755
36.30002,-0.0003223441
36.40002,-0.0003214155
36.50002,-0.000320584
36.60001,-0.0003197722
36.70001,-0.0003187542
36.80001,-0.0003178944
36.90001,-0.0003170252
37.00001,-0.0003160995
37.10001,-0.0003152416
37.2,-0.0003143686
37.3,-0.0003134297
37.4,-0.0003125736
37.5,-0.000311743
37.6,-0.0003108135
37.7,-0.0003099443
37.8,-0.0003091165
37.89999,-0.0003083207
37.99999,-0.0003074873
38.09999,-0.0003066671
38.19999,-0.0003058242
38.29999,-0.0003049748
38.39999,-0.0003041413
38.49998,-0.0003033305
38.59998,-0.0003025065
38.69998,-0.0003016816
38.79998,-0.0003008764
38.89998,-0.0003000439
38.99998,-0.0002992811
39.09998,-0.0002984232
39.19997,-0.0002976783
39.29997,-0.0002968655
39.39997,-0.0002960434
39.49997,-0.0002952985
39.59997,-0.0002944716
39.69997,-0.0002937098
39.79996,-0.0002929037
39.89996,-0.0002921833
39.99996,-0.0002914233
40.09996,-0.0002905945
40.19996,-0.0002899062
40.29996,-0.0002891659
40.39996,-0.0002883815
40.49995,-0.0002876771
40.59995,-0.0002868888
40.69995,-0.0002860733
40.79995,-0.0002854254
40.89995,-0.0002847323
40.99995,-0.0002839817
41.09995,-0.0002833272
41.19994,-0.0002826595
41.29994,-0.0002818694
41.39994,-0.0002811857
41.49994,-0.0002804398
41.59994,-0.0002796921
41.69994,-0.0002790216
41.79993,-0.0002783398
41.89993,-0.000277576
41.99993,-0.0002769404
42.09993,-0.0002762143
42.19993,-0.0002755673
42.29993,-0.0002748563
42.39993,-0.0002742122
42.49992,-0.0002734484
42.59992,-0.000272874
42.69992,-0.0002721846
42.79992,-0.0002714812
42.89992,-0.0002708389
42.99992,-0.0002701985
43.09991,-0.0002694791
43.19991,-0.0002688547
43.29991,-0.0002681927
43.39991,-0.000267541
43.49991,-0.0002669194
43.59991,-0.0002662668
43.69991,-0.0002656471
43.7999,-0.0002650087
43.8999,-0.0002643598
43.9999,-0.0002637703
44.0999,-0.0002631591
44.1999,-0.0002625244
44.2999,-0.0002619197
44.39989,-0.0002612568
44.49989,-0.0002606691
44.59989,-0.0002600297
44.69989,-0.0002594656
44.79989,-0.0002588337
44.89989,-0.0002582009
44.99989,-0.0002575708
45.09988,-0.0002570275
45.19988,-0.000256405
45.29988,-0.0002557938
45.39988,-0.0002552222
45.49988,-0.0002546383
45.59988,-0.0002539894
45.69987,-0.0002534395
45.79987,-0.0002529027
45.89987,-0.0002523263
45.99987,-0.0002517717
46.09987,-0.0002511068
46.19987,-0.0002504984
46.29987,-0.0002499654
46.39986,-0.0002494145
46.49986,-0.0002488156
46.59986,-0.0002482468
46.69986,-0.000247743
46.79986,-0.0002471346
46.89986,-0.0002465601
46.99986,-0.0002459951
47.09985,-0.0002454244
47.19985,-0.000244881
47.29985,-0.0002443226
47.39985,-0.0002437557
47.49985,-0.0002433225
47.59985,-0.0002427169
47.69984,-0.0002421538
47.79984,-0.0002416763
47.89984,-0.0002410934
47.99984,-0.0002405453
48.09984,-0.0002400659
48.19984,-0.0002395066
48.29984,-0.0002390272
48.39983,-0.0002384688
48.49983,-0.0002379254
48.59983,-0.0002374894
48.69983,-0.00023701
48.79983,-0.0002364318
48.89983,-0.0002359496
48.99982,-0.0002354213
49.09982,-0.0002349279
49.19982,-0.0002343996
49.29982,-0.0002338995
49.39982,-0.0002333928
49.49982,-0.0002329333
49.59982,-0.00023242
49.69981,-0.0002319379
49.79981,-0.0002314237
49.89981,-0.0002309952
49.99981,-0.0002304772
50.09981,-0.0002299932
50.19981,-0.0002295101
50.2998,-0.0002290656
50.3998,-0.0002285985
50.4998,-0.0002280702
50.5998,-0.0002276313
50.6998,-0.0002271812
50.7998,-0.0002266896
50.8998,-0.0002262168
50.99979,-0.0002257526
51.09979,-0.0002253137
51.19979,-0.0002248975
51.29979,-0.0002244078
51.39979,-0.0002238861
51.49979,-0.0002235348
51.59978,-0.0002231025
51.69978,-0.0002225705
51.79978,-0.0002221373
51.89978,-0.0002217191
51.99978,-0.0002212144
52.09978,-0.0002208433
52.19978,-0.0002203998
52.29977,-0.0002199223
52.39977,-0.0002194797
52.49977,-0.0002190747
52.59977,-0.0002185879
52.69977,-0.000218166
52.79977,-0.0002177997
52.89977,-0.000217342
52.99976,-0.0002168909
53.09976,-0.0002164737
53.19976,-0.0002160198
53.29976,-0.0002156205
53.39976,-0.0002152137
53.49976,-0.0002147852
53.59975,-0.0002143831
53.69975,-0.0002139932
53.79975,-0.0002135572
53.89975,-0.0002131513
53.99975,-0.0002127407
54.09975,-0.0002123
54.19975,-0.0002119166
54.29974,-0.0002115202
54.39974,-0.000211087
54.49974,-0.0002107216
54.59974,-0.0002103157
54.69974,-0.0002098656
54.79974,-0.0002094804
54.89973,-0.000209082
54.99973,-0.0002086592
55.09973,-0.0002082778
55.19973,-0.0002078691
55.29973,-0.0002074708
55.39973,-0.0002071346
55.49973,-0.0002067588
55.59972,-0.0002063237
55.69972,-0.000205947
55.79972,-0.0002055543
55.89972,-0.0002051795
55.99972,-0.0002047849
56.09972,-0.0002044355
56.19971,-0.0002040259
56.29971,-0.0002036869
56.39971,-0.0002032734
56.49971,-0.0002028836
56.59971,-0.0002025455
56.69971,-0.0002021782
56.79971,-0.0002017808
56.8997,-0.0002014615
56.9997,-0.0002010868
57.0997,-0.0002007204
57.1997,-0.000200388
57.2997,-0.0002000329
57.3997,-0.0001996158
57.49969,-0.0001992541
57.59969,-0.0001989349
57.69969,-0.0001985836
57.79969,-0.0001982446
57.89969,-0.0001978689
57.99969,-0.0001975214
58.09969,-0.0001971936
58.19968,-0.0001968631
58.29968,-0.0001964544
58.39968,-0.0001961106
58.49968,-0.0001957857
58.59968,-0.0001954722
58.69968,-0.0001951529
58.79967,-0.000194796
58.89967,-0.0001944033
58.99967,-0.0001940906
59.09967,-0.0001938034
59.19967,-0.0001934342
59.29967,-0.0001930952
59.39967,-0.0001928042
59.49966,-0.0001924369
59.59966,-0.0001921299
59.69966,-0.0001917702
59.79966,-0.0001914462
59.89966,-0.0001911289
59.99966,-0.0001908407
60.09966,-0.0001904885
60.19965,-0.0001901617
60.29965,-0.0001898218
60.39965,-0.000189495
60.49965,-0.0001891833
60.59965,-0.0001888744
60.69965,-0.0001885278
60.79964,-0.0001882284
60.89964,-0.0001879458
60.99964,-0.000187603
61.09964,-0.0001873055
61.19964,-0.000187038
61.29964,-0.00018673
61.39964,-0.0001863882
61.49963,-0.0001860755
61.59963,-0.0001857987
61.69963,-0.000185486
61.79963,-0.0001851743
61.89963,-0.0001848739
61.99963,-0.0001846582
62.09962,-0.0001842806
62.19962,-0.0001839953
62.29962,-0.0001838097
62.39962,-0.0001835178
62.49962,-0.0001832004
62.59962,-0.000182869
62.69962,-0.0001825271
62.79961,-0.0001822305
62.89961,-0.0001819413
62.99961,-0.0001816419
63.09961,-0.0001813509
63.19961,-0.0001810759
63.29961,-0.0001807642
63.3996,-0.0001804948
63.4996,-0.0001801615
63.5996,-0.0001798959
63.6996,-0.0001796416
63.7996,-0.0001793365
63.8996,-0.0001790615
63.9996,-0.00017878
64.09959,-0.0001784861
64.19959,-0.000178213
64.29959,-0.000177922
64.39959,-0.0001776245
64.49959,-0.0001773401
64.59959,-0.0001770557
64.69958,-0.0001767957
64.79958,-0.0001765405
64.89958,-0.0001762947
64.99958,-0.0001759745
65.09958,-0.0001756996
65.19958,-0.0001754312
65.29958,-0.0001751524
65.39957,-0.0001748661
65.49957,-0.0001746005
65.59957,-0.0001743322
65.69957,-0.0001741043
65.79957,-0.0001738142
65.89957,-0.0001735477
65.99957,-0.0001733311
66.09956,-0.0001730307
66.19956,-0.0001727529
66.29956,-0.0001725156
66.39956,-0.000172218
66.49956,-0.0001719722
66.59956,-0.0001717254
66.69955,-0.0001714712
66.79955,-0.0001711905
66.89955,-0.0001709495
66.99955,-0.0001706867
67.09955,-0.0001704334
67.19955,-0.0001702121
67.29955,-0.000169906
67.39954,-0.0001696536
67.49954,-0.0001693994
67.59954,-0.0001691602
67.69954,-0.0001688946
67.79954,-0.0001686422
67.89954,-0.0001684153
67.99953,-0.00016816
68.09953,-0.0001679274
68.19953,-0.0001676732
68.29953,-0.0001674076
68.39953,-0.0001671383
68.49953,-0.0001668746
68.59953,-0.0001666373
68.69952,-0.0001663952
68.79952,-0.0001661278
68.89952,-0.0001658829
68.99952,-0.0001656918
69.09952,-0.0001654206
69.19952,-0.0001651418
69.29951,-0.0001649299
69.39951,-0.0001647434
69.49951,-0.0001645174
69.59951,-0.00016425
69.69951,-0.0001640023
69.79951,-0.0001637537
69.89951,-0.000163554
69.9995,-0.0001633233
70.0995,-0.0001630785
70.1995,-0.0001628449
70.2995,-0.0001626161
70.3995,-0.0001623835
70.4995,-0.0001621631
70.59949,-0.0001619079
70.69949,-0.0001617149
70.79949,-0.0001614747
70.89949,-0.0001612468
70.99949,-0.00016105
71.09949,-0.000160792
71.19949,-0.0001605584
71.29948,-0.0001603333
71.39948,-0.000160128
71.49948,-0.0001599453
71.59948,-0.0001597165
71.69948,-0.0001594368
71.79948,-0.0001592635
71.89948,-0.0001590318
71.99947,-0.0001587719
72.09947,-0.0001586053
72.19947,-0.0001583868
72.29947,-0.0001581777
72.39947,-0.0001580157
72.49947,-0.0001577775
72.59946,-0.0001575336
72.69946,-0.0001573311
72.79946,-0.0001571286
72.89946,-0.0001568508
72.99946,-0.0001566935
73.09946,-0.0001564383
73.19946,-0.0001561991
73.29945,-0.000156039
73.39945,-0.0001558356
73.49945,-0.0001555747
73.59945,-0.0001553714
73.69945,-0.0001551811
73.79945,-0.0001549749
73.89944,-0.0001547997
73.99944,-0.0001545916
74.09944,-0.0001543279
74.19944,-0.0001541706
74.29944,-0.0001539804
74.39944,-0.0001537695
74.49944,-0.0001535557
74.59943,-0.000153357
74.69943,-0.00015313
74.79943,-0.0001529567
74.89943,-0.0001527835
74.99943,-0.000152532
75.09943,-0.0001523587
75.19942,-0.0001522071
75.29942,-0.0001520404
75.39942,-0.0001518907
75.49942,-0.0001516402
75.59942,-0.000151368
75.69942,-0.0001511938
75.79942,-0.0001509913
75.89941,-0.0001507522
75.99941,-0.0001505732
76.09941,-0.0001503632
76.19941,-0.0001501438
76.29941,-0.0001500016
76.39941,-0.0001498368
76.4994,-0.0001496108
76.5994,-0.0001494526
76.6994,-0.0001492369
76.7994,-0.0001490278
76.8994,-0.0001488621
76.9994,-0.0001486737
77.0994,-0.0001484543
77.19939,-0.0001482773
77.29939,-0.0001481106
77.39939,-0.0001479025
77.49939,-0.0001477282
77.59939,-0.0001475361
77.69939,-0.0001473647
77.79939,-0.0001471981
77.89938,-0.0001470276
77.99938,-0.0001468044
78.09938,-0.000146633
78.19938,-0.0001464748
78.29938,-0.0001462902
78.39938,-0.0001461085
78.49937,-0.0001459022
78.59937,-0.0001457516
78.69937,-0.0001455529
78.79937,-0.0001453749
78.89937,-0.0001452016
78.99937,-0.0001450245
79.09937,-0.0001448447
79.19936,-0.0001446808
79.29936,-0.0001445179
79.39936,-0.0001443352
79.49936,-0.0001441224
79.59936,-0.0001439547
79.69936,-0.0001438012
79.79935,-0.0001436261
79.89935,-0.0001434528
79.99935,-0.000143272
80.09935,-0.000143062
80.19935,-0.0001429179
80.29935,-0.0001427531
80.39935,-0.0001425308
80.49934,-0.0001423802
80.59934,-0.0001421984
80.69934,-0.0001420468
80.79934,-0.0001418895
80.89934,-0.000141703
80.99934,-0.0001415637
81.09933,-0.0001414158
81.19933,-0.0001412181
81.29933,-0.0001410561
81.39933,-0.0001408329
81.49933,-0.000140701
81.59933,-0.0001405381
81.69933,-0.0001403526
81.79932,-0.0001401643
81.89932,-0.0001400381
81.99932,-0.0001398403
82.09932,-0.0001396991
82.19932,-0.0001395079
82.29932,-0.0001393497
82.39931,-0.0001392122
82.49931,-0.0001390624
82.59931,-0.0001388778
82.69931,-0.0001387432
82.79931,-0.0001386387
82.89931,-0.0001384418
82.99931,-0.0001382893
83.0993,-0.0001381122
83.1993,-0.0001379333
83.2993,-0.0001378052
83.3993,-0.0001376357
83.4993,-0.0001374351
83.5993,-0.0001372863
83.6993,-0.0001371112
83.79929,-0.0001370339
83.89929,-0.0001369266
83.99929,-0.0001367543
84.09929,-0.0001365104
84.19929,-0.0001363785
84.29929,-0.0001362316
84.39928,-0.0001360489
84.49928,-0.0001359048
84.59928,-0.000135691
84.69928,-0.0001355404
84.79928,-0.000135416
84.89928,-0.0001352908
84.99928,-0.0001350996
85.09927,-0.0001349584
85.19927,-0.0001348218
85.29927,-0.0001346542
85.39927,-0.0001345082
85.49927,-0.0001343491
85.59927,-0.0001341993
85.69926,-0.0001340647
85.79926,-0.0001339178
85.89926,-0.000133753
85.99926,-0.0001336155
86.09926,-0.0001335185
86.19926,-0.0001333386
86.29926,-0.0001331926
86.39925,-0.0001330363
86.49925,-0.0001328753
86.59925,-0.0001327312
86.69925,-0.0001325909
86.79925,-0.0001324355
86.89925,-0.0001322867
86.99924,-0.0001321492
87.09924,-0.000132007
87.19924,-0.0001318601
87.29924,-0.0001317038
87.39924,-0.0001315248
87.49924,-0.000131425
87.59924,-0.0001312922
87.69923,-0.0001311039
87.79923,-0.0001309607
87.89923,-0.0001308364
87.99923,-0.0001306989
88.09923,-0.0001305831
88.19923,-0.0001304258
88.29922,-0.0001302676
88.39922,-0.0001301565
