EXPID. 1261
[电化学]: i-t : @ 0(V) X 600(sec)
起始电位 (V),0
静置时间 (秒),0
运行时间 (秒),600
记录间隔,0.1
电解液 信息:
HNO3,0.4
0.1,-0.002965156
0.2,-0.002252773
0.3,-0.002112207
0.4,-0.002116186
0.5,-0.002049418
0.6,-0.001961823
0.7,-0.001874689
0.8000001,-0.001789971
0.9000001,-0.001711673
1,-0.001640508
1.1,-0.001574293
1.2,-0.001514632
1.3,-0.001461742
1.4,-0.00141203
1.5,-0.0013679
1.6,-0.001327994
1.7,-0.001290724
1.8,-0.001257007
1.9,-0.001226172
2,-0.001197718
2.1,-0.001171005
2.2,-0.001147065
2.3,-0.001123857
2.4,-0.001102508
2.5,-0.001082797
2.6,-0.001064013
2.7,-0.001046949
2.799999,-0.001030347
2.899999,-0.001014484
2.999999,-0.001000229
3.099999,-0.0009859116
3.199999,-0.0009725135
3.299999,-0.000960222
3.399999,-0.0009482084
3.499999,-0.000936272
3.599999,-0.0009252894
3.699999,-0.0009147562
3.799999,-0.0009045487
3.899998,-0.0008948386
3.999998,-0.0008853177
4.099998,-0.0008760981
4.199998,-0.0008674182
4.299998,-0.0008591026
4.399998,-0.0008507373
4.499998,-0.0008427401
4.599998,-0.0008352374
4.699998,-0.0008272345
4.799998,-0.0008204126
4.899998,-0.0008134711
4.999998,-0.0008061134
5.099998,-0.000799766
5.199997,-0.0007931316
5.299997,-0.0007864669
5.399997,-0.0007803278
5.499997,-0.0007743186
5.599997,-0.0007681823
5.699997,-0.0007623426
5.799997,-0.0007568072
5.899997,-0.0007512848
5.999997,-0.0007458359
6.099997,-0.000740841
6.199996,-0.0007353243
6.299996,-0.0007305169
6.399996,-0.0007254183
6.499996,-0.0007204205
6.599996,-0.0007158174
6.699996,-0.0007109599
6.799996,-0.0007064217
6.899996,-0.0007018872
6.999996,-0.0006974206
7.099996,-0.0006931527
7.199996,-0.0006888462
7.299995,-0.0006844163
7.399995,-0.0006803884
7.499995,-0.0006763221
7.599995,-0.0006721238
7.699995,-0.0006684181
7.799995,-0.0006644657
7.899995,-0.0006603729
7.999995,-0.0006566239
8.099995,-0.0006528456
8.199995,-0.0006489977
8.299995,-0.000645487
8.399996,-0.0006417116
8.499996,-0.0006380784
8.599997,-0.0006345686
8.699997,-0.000631199
8.799997,-0.0006278729
8.899998,-0.00062459
8.999998,-0.0006212477
9.099998,-0.0006181579
9.199999,-0.0006148817
9.299999,-0.0006116675
9.4,-0.0006086116
9.5,-0.0006053927
9.6,-0.000602334
9.700001,-0.0005994203
9.800001,-0.0005965178
9.900002,-0.0005936004
10,-0.0005907036
10.1,-0.0005878672
10.2,-0.0005850571
10.3,-0.0005823372
10.4,-0.0005795328
10.5,-0.0005770014
10.6,-0.0005743458
10.7,-0.0005715498
10.8,-0.0005690712
10.90001,-0.0005665002
11.00001,-0.0005638878
11.10001,-0.0005614383
11.20001,-0.0005587318
11.30001,-0.0005561006
11.40001,-0.0005536869
11.50001,-0.0005513863
11.60001,-0.0005487617
11.70001,-0.0005463425
11.80001,-0.0005440973
11.90001,-0.0005415923
12.00001,-0.000539319
12.10001,-0.0005371417
12.20001,-0.0005347704
12.30001,-0.0005324961
12.40001,-0.0005302925
12.50001,-0.0005280624
12.60001,-0.0005258984
12.70001,-0.0005238407
12.80001,-0.0005214458
12.90001,-0.0005194861
13.00001,-0.0005174227
13.10001,-0.0005152238
13.20001,-0.0005132123
13.30001,-0.0005112431
13.40001,-0.0005090234
13.50002,-0.0005070666
13.60002,-0.0005051172
13.70002,-0.0005029606
13.80002,-0.0005010687
13.90002,-0.0004991306
14.00002,-0.0004970428
14.10002,-0.0004952535
14.20002,-0.0004933173
14.30002,-0.000491367
14.40002,-0.0004894515
14.50002,-0.0004875915
14.60002,-0.0004858993
14.70002,-0.0004841034
14.80002,-0.0004822764
14.90002,-0.0004803308
15.00002,-0.0004785067
15.10002,-0.0004767805
15.20002,-0.0004748904
15.30002,-0.0004730983
15.40002,-0.0004713994
15.50002,-0.000469531
15.60002,-0.0004678529
15.70002,-0.0004662698
15.80002,-0.0004644231
15.90002,-0.0004627939
16.00002,-0.0004610649
16.10003,-0.0004592229
16.20003,-0.0004575965
16.30003,-0.0004559042
16.40003,-0.0004542392
16.50003,-0.0004526147
16.60003,-0.0004510411
16.70003,-0.0004493356
16.80003,-0.0004477488
16.90003,-0.000446388
17.00003,-0.0004446562
17.10003,-0.0004431898
17.20003,-0.0004417923
17.30003,-0.0004401754
17.40003,-0.0004386922
17.50003,-0.0004371506
17.60003,-0.0004355713
17.70003,-0.0004341662
17.80003,-0.0004325436
17.90003,-0.0004310397
18.00003,-0.0004295979
18.10003,-0.0004280732
18.20003,-0.0004265928
18.30003,-0.0004252132
18.40003,-0.0004236499
18.50003,-0.0004222147
18.60003,-0.0004208831
18.70004,-0.0004194338
18.80004,-0.0004180447
18.90004,-0.0004167432
19.00004,-0.0004152139
19.10004,-0.0004138173
19.20004,-0.0004124612
19.30004,-0.0004111051
19.40004,-0.000409732
19.50004,-0.0004083599
19.60004,-0.0004070651
19.70004,-0.0004057033
19.80004,-0.0004043886
19.90004,-0.000402993
20.00004,-0.0004018112
20.10004,-0.0004004748
20.20004,-0.0003991376
20.30004,-0.000397887
20.40004,-0.0003964951
20.50004,-0.000395219
20.60004,-0.0003939844
20.70004,-0.0003927347
20.80004,-0.0003915105
20.90004,-0.0003902909
21.00004,-0.0003889386
21.10004,-0.0003878151
21.20004,-0.000386557
21.30005,-0.0003853148
21.40005,-0.0003841329
21.50005,-0.0003830245
21.60005,-0.0003817824
21.70005,-0.0003805958
21.80005,-0.0003794639
21.90005,-0.0003781416
22.00005,-0.0003770445
22.10005,-0.0003758627
22.20005,-0.0003747053
22.30005,-0.0003735291
22.40005,-0.0003724752
22.50005,-0.0003712661
22.60005,-0.0003701878
22.70005,-0.000369086
22.80005,-0.0003679672
22.90005,-0.0003668079
23.00005,-0.0003657645
23.10005,-0.0003646052
23.20005,-0.0003635684
23.30005,-0.0003624693
23.40005,-0.0003614269
23.50005,-0.0003603571
23.60005,-0.0003593598
23.70005,-0.0003583003
23.80005,-0.0003571995
23.90005,-0.0003561843
24.00006,-0.0003551643
24.10006,-0.0003540475
24.20006,-0.0003530775
24.30006,-0.0003520472
24.40006,-0.0003510358
24.50006,-0.0003500122
24.60006,-0.0003489348
24.70006,-0.0003479093
24.80006,-0.000346993
24.90006,-0.0003459241
25.00006,-0.0003449409
25.10006,-0.0003440303
25.20006,-0.000342985
25.30006,-0.000342047
25.40006,-0.0003411561
25.50006,-0.0003400542
25.60006,-0.0003391248
25.70006,-0.0003382301
25.80006,-0.0003372027
25.90006,-0.000336244
26.00006,-0.0003354436
26.10006,-0.0003343154
26.20006,-0.000333497
26.30006,-0.0003326391
26.40006,-0.0003316013
26.50006,-0.0003307537
26.60007,-0.0003298911
26.70007,-0.0003288232
26.80007,-0.0003280152
26.90007,-0.0003272175
27.00007,-0.0003261684
27.10007,-0.0003253774
27.20007,-0.0003245458
27.30007,-0.0003234506
27.40007,-0.0003227048
27.50007,-0.0003218732
27.60007,-0.0003209823
27.70007,-0.0003201263
27.80007,-0.0003192627
27.90007,-0.0003183069
28.00007,-0.0003175045
28.10007,-0.0003167191
28.20007,-0.0003157962
28.30007,-0.0003149722
28.40007,-0.0003141934
28.50007,-0.0003132686
28.60007,-0.00031247
28.70007,-0.0003117524
28.80007,-0.0003108107
28.90007,-0.0003099914
29.00007,-0.0003092936
29.10007,-0.0003084074
29.20008,-0.0003075485
29.30008,-0.0003069072
29.40008,-0.0003059768
29.50008,-0.0003051999
29.60008,-0.0003045303
29.70008,-0.0003036733
29.80008,-0.0003029265
29.90008,-0.0003021863
30.00008,-0.0003013519
30.10008,-0.0003005618
30.20008,-0.0002998687
30.30008,-0.0002991191
30.40008,-0.000298361
30.50008,-0.000297682
30.60008,-0.0002968081
30.70008,-0.0002960123
30.80008,-0.0002953927
30.90008,-0.000294612
31.00008,-0.0002938614
31.10008,-0.0002931768
31.20008,-0.0002923961
31.30008,-0.0002916455
31.40008,-0.0002909816
31.50008,-0.0002902141
31.60008,-0.0002894842
31.70008,-0.0002887959
31.80009,-0.0002880312
31.90009,-0.0002873286
32.00008,-0.0002866421
32.10008,-0.0002859565
32.20008,-0.0002852257
32.30008,-0.0002846663
32.40008,-0.0002839506
32.50008,-0.0002832829
32.60007,-0.0002826331
32.70007,-0.0002820493
32.80007,-0.0002813854
32.90007,-0.0002807619
33.00007,-0.0002800405
33.10007,-0.0002793258
33.20007,-0.0002786788
33.30006,-0.0002779772
33.40006,-0.0002773303
33.50006,-0.0002767266
33.60006,-0.0002760495
33.70006,-0.0002754016
33.80006,-0.0002747998
33.90005,-0.0002741482
34.00005,-0.0002734211
34.10005,-0.0002727845
34.20005,-0.0002721686
34.30005,-0.0002715198
34.40005,-0.0002708954
34.50005,-0.0002702739
34.60004,-0.0002695883
34.70004,-0.0002690166
34.80004,-0.0002683649
34.90004,-0.0002677302
35.00004,-0.000267201
35.10004,-0.0002665748
35.20004,-0.0002659475
35.30003,-0.0002653599
35.40003,-0.0002647958
35.50003,-0.0002641771
35.60003,-0.0002635838
35.70003,-0.0002630065
35.80003,-0.000262369
35.90002,-0.0002618153
36.00002,-0.0002612756
36.10002,-0.0002606579
36.20002,-0.0002601446
36.30002,-0.0002595476
36.40002,-0.0002589317
36.50002,-0.0002583083
36.60001,-0.0002577639
36.70001,-0.000257099
36.80001,-0.000256615
36.90001,-0.000256081
37.00001,-0.0002554698
37.10001,-0.0002549397
37.2,-0.000254384
37.3,-0.0002537578
37.4,-0.000253222
37.5,-0.0002527304
37.6,-0.0002520965
37.7,-0.0002515946
37.8,-0.0002510757
37.89999,-0.0002504956
37.99999,-0.0002499692
38.09999,-0.0002494588
38.19999,-0.0002489135
38.29999,-0.0002483344
38.39999,-0.00024779
38.49998,-0.0002472419
38.59998,-0.0002466854
38.69998,-0.0002461128
38.79998,-0.0002455421
38.89998,-0.000245027
38.99998,-0.0002445608
39.09998,-0.0002440476
39.19997,-0.0002434741
39.29997,-0.0002429787
39.39997,-0.0002424457
39.49997,-0.0002419457
39.59997,-0.0002414974
39.69997,-0.0002409474
39.79996,-0.0002404163
39.89996,-0.0002399247
39.99996,-0.0002393747
40.09996,-0.0002388992
40.19996,-0.0002384641
40.29996,-0.0002379442
40.39996,-0.0002374244
40.49995,-0.0002369385
40.59995,-0.0002364667
40.69995,-0.0002359336
40.79995,-0.0002355014
40.89995,-0.0002349618
40.99995,-0.0002345154
41.09995,-0.0002340247
41.19994,-0.0002334814
41.29994,-0.000233051
41.39994,-0.0002325867
41.49994,-0.0002320933
41.59994,-0.0002316544
41.69994,-0.0002312005
41.79993,-0.0002306571
41.89993,-0.0002302606
41.99993,-0.000229787
42.09993,-0.0002292116
42.19993,-0.0002288452
42.29993,-0.0002283941
42.39993,-0.0002279214
42.49992,-0.0002275372
42.59992,-0.0002270635
42.69992,-0.0002265822
42.79992,-0.0002262121
42.89992,-0.0002257469
42.99992,-0.0002253316
43.09991,-0.0002249305
43.19991,-0.0002244398
43.29991,-0.0002239878
43.39991,-0.0002235734
43.49991,-0.0002231515
43.59991,-0.0002226515
43.69991,-0.0002222644
43.7999,-0.0002218105
43.8999,-0.0002213848
43.9999,-0.000221042
44.0999,-0.0002206079
44.1999,-0.0002201418
44.2999,-0.0002197773
44.39989,-0.0002193177
44.49989,-0.0002188478
44.59989,-0.0002184636
44.69989,-0.0002180897
44.79989,-0.0002176292
44.89989,-0.0002172892
44.99989,-0.0002168928
45.09988,-0.0002165019
45.19988,-0.0002161074
45.29988,-0.0002157005
45.39988,-0.0002153351
45.49988,-0.0002149123
45.59988,-0.0002145036
45.69987,-0.0002140911
45.79987,-0.0002137229
45.89987,-0.0002133453
45.99987,-0.0002129356
46.09987,-0.0002125617
46.19987,-0.0002122077
46.29987,-0.0002117782
46.39986,-0.0002113836
46.49986,-0.0002110239
46.59986,-0.0002106792
46.69986,-0.0002103157
46.79986,-0.0002099061
46.89986,-0.0002094682
46.99986,-0.0002091056
47.09985,-0.0002087741
47.19985,-0.0002083974
47.29985,-0.000208017
47.39985,-0.0002077448
47.49985,-0.000207321
47.59985,-0.0002069048
47.69984,-0.0002065139
47.79984,-0.0002061646
47.89984,-0.0002057342
47.99984,-0.0002054196
48.09984,-0.000205042
48.19984,-0.000204654
48.29984,-0.0002042999
48.39983,-0.0002039496
48.49983,-0.0002035513
48.59983,-0.0002032386
48.69983,-0.0002029118
48.79983,-0.000202504
48.89983,-0.0002021368
48.99982,-0.0002018185
49.09982,-0.0002014521
49.19982,-0.0002011517
49.29982,-0.0002007684
49.39982,-0.0002005198
49.49982,-0.0002002411
49.59982,-0.0001998813
49.69981,-0.0001994114
49.79981,-0.0001990705
49.89981,-0.0001987315
49.99981,-0.0001983793
50.09981,-0.0001980798
50.19981,-0.000197673
50.2998,-0.0001973971
50.3998,-0.0001970288
50.4998,-0.0001967237
50.5998,-0.0001963715
50.6998,-0.0001960607
50.7998,-0.0001957575
50.8998,-0.0001953855
50.99979,-0.000195071
51.09979,-0.0001947112
51.19979,-0.0001943289
51.29979,-0.0001940482
51.39979,-0.0001937083
51.49979,-0.0001933871
51.59978,-0.0001930679
51.69978,-0.0001927779
51.79978,-0.0001924049
51.89978,-0.0001921394
51.99978,-0.0001918851
52.09978,-0.0001914745
52.19978,-0.0001912297
52.29977,-0.0001909933
52.39977,-0.0001905893
52.49977,-0.0001903745
52.59977,-0.0001900252
52.69977,-0.0001896541
52.79977,-0.0001893594
52.89977,-0.0001890373
52.99976,-0.0001887218
53.09976,-0.0001885316
53.19976,-0.0001882557
53.29976,-0.0001878611
53.39976,-0.0001876445
53.49976,-0.0001873704
53.59975,-0.0001870964
53.69975,-0.0001869222
53.79975,-0.0001866274
53.89975,-0.0001862535
53.99975,-0.0001860124
54.09975,-0.0001856584
54.19975,-0.0001853297
54.29974,-0.0001851197
54.39974,-0.0001848767
54.49974,-0.000184516
54.59974,-0.000184178
54.69974,-0.000183918
54.79974,-0.00018358
54.89973,-0.0001832758
54.99973,-0.0001830356
55.09973,-0.0001827211
55.19973,-0.0001824838
55.29973,-0.0001821918
55.39973,-0.0001818575
55.49973,-0.0001815741
55.59972,-0.0001812859
55.69972,-0.0001809478
55.79972,-0.0001807161
55.89972,-0.0001804581
55.99972,-0.0001801634
56.09972,-0.0001798714
56.19971,-0.0001796049
56.29971,-0.0001793167
56.39971,-0.0001790446
56.49971,-0.0001787734
56.59971,-0.0001784211
56.69971,-0.0001781499
56.79971,-0.0001779023
56.8997,-0.0001776037
56.9997,-0.0001773579
57.0997,-0.0001770566
57.1997,-0.0001767938
57.2997,-0.0001765612
57.3997,-0.000176258
57.49969,-0.0001759877
57.59969,-0.0001757184
57.69969,-0.0001754293
57.79969,-0.0001751477
57.89969,-0.0001749047
57.99969,-0.000174594
58.09969,-0.0001743359
58.19968,-0.0001741118
58.29968,-0.0001738472
58.39968,-0.0001735505
58.49968,-0.0001732774
58.59968,-0.0001730005
58.69968,-0.0001727434
58.79967,-0.0001725316
58.89967,-0.0001722538
58.99967,-0.0001719646
59.09967,-0.0001717132
59.19967,-0.000171457
59.29967,-0.0001711745
59.39967,-0.0001709768
59.49966,-0.0001707027
59.59966,-0.000170423
59.69966,-0.0001701556
59.79966,-0.0001698909
59.89966,-0.0001696132
59.99966,-0.0001693805
60.09966,-0.0001691677
60.19965,-0.0001688814
60.29965,-0.0001686658
60.39965,-0.0001684313
60.49965,-0.0001681695
60.59965,-0.0001679453
60.69965,-0.00016766
60.79964,-0.0001673775
60.89964,-0.0001671675
60.99964,-0.0001669047
61.09964,-0.0001666278
61.19964,-0.000166415
61.29964,-0.0001661645
61.39964,-0.0001659253
61.49963,-0.0001657323
61.59963,-0.0001654893
61.69963,-0.0001652134
61.79963,-0.0001650316
61.89963,-0.0001648018
61.99963,-0.0001645306
62.09962,-0.0001643178
62.19962,-0.0001641002
62.29962,-0.0001638215
62.39962,-0.0001636096
62.49962,-0.0001634015
62.59962,-0.0001631707
62.69962,-0.0001629787
62.79961,-0.0001627602
62.89961,-0.000162472
62.99961,-0.0001622808
63.09961,-0.0001620124
63.19961,-0.0001618203
63.29961,-0.0001615896
63.3996,-0.0001613617
63.4996,-0.0001611441
63.5996,-0.0001609219
63.6996,-0.0001606676
63.7996,-0.0001604887
63.8996,-0.0001602994
63.9996,-0.0001600687
64.09959,-0.000159805
64.19959,-0.0001595771
64.29959,-0.0001593633
64.39959,-0.0001591929
64.49959,-0.0001589518
64.59959,-0.0001587559
64.69958,-0.0001585214
64.79958,-0.0001583048
64.89958,-0.0001581108
64.99958,-0.0001578971
65.09958,-0.0001576729
65.19958,-0.0001574931
65.29958,-0.0001572991
65.39957,-0.000157042
65.49957,-0.0001568282
65.59957,-0.0001566257
65.69957,-0.0001564054
65.79957,-0.0001562387
65.89957,-0.0001560108
65.99957,-0.0001557706
66.09956,-0.0001555606
66.19956,-0.0001553732
66.29956,-0.0001551576
66.39956,-0.0001549363
66.49956,-0.0001547677
66.59956,-0.0001545398
66.69955,-0.0001543317
66.79955,-0.0001541556
66.89955,-0.0001538956
66.99955,-0.0001537205
67.09955,-0.0001535416
67.19955,-0.0001533325
67.29955,-0.0001531394
67.39954,-0.0001529483
67.49954,-0.0001527486
67.59954,-0.0001525989
67.69954,-0.0001523776
67.79954,-0.0001521817
67.89954,-0.0001519802
67.99953,-0.0001517946
68.09953,-0.0001515809
68.19953,-0.0001513982
68.29953,-0.0001512136
68.39953,-0.0001510299
68.49953,-0.0001508105
68.59953,-0.0001506005
68.69952,-0.0001503613
68.79952,-0.0001502879
68.89952,-0.0001500807
68.99952,-0.0001498763
69.09952,-0.0001496673
69.19952,-0.0001495392
69.29951,-0.0001492783
69.39951,-0.0001491832
69.49951,-0.0001489478
69.59951,-0.0001487331
69.69951,-0.0001485664
69.79951,-0.000148427
69.89951,-0.0001481681
69.9995,-0.0001480079
70.0995,-0.0001478497
70.1995,-0.0001476284
70.2995,-0.0001474674
70.3995,-0.0001472932
70.4995,-0.0001470756
70.59949,-0.0001469588
70.69949,-0.0001467705
70.79949,-0.0001465351
70.89949,-0.0001464315
70.99949,-0.0001462657
71.09949,-0.0001460614
71.19949,-0.0001458994
71.29948,-0.0001456837
71.39948,-0.0001455058
71.49948,-0.000145388
71.59948,-0.0001452025
71.69948,-0.0001449511
71.79948,-0.000144839
71.89948,-0.0001446441
71.99947,-0.0001444407
72.09947,-0.0001443361
72.19947,-0.0001441742
72.29947,-0.0001439566
72.39947,-0.0001438398
72.49947,-0.0001436496
72.59946,-0.0001434264
72.69946,-0.0001433021
72.79946,-0.0001431392
72.89946,-0.0001429094
72.99946,-0.0001427719
73.09946,-0.000142592
73.19946,-0.0001424442
73.29945,-0.0001422483
73.39945,-0.0001420901
73.49945,-0.0001419027
73.59945,-0.0001417991
73.69945,-0.0001416484
73.79945,-0.000141478
73.89944,-0.000141284
73.99944,-0.0001411399
74.09944,-0.0001409873
74.19944,-0.0001408018
74.29944,-0.0001406059
74.39944,-0.0001404355
74.49944,-0.0001402669
74.59943,-0.0001400908
74.69943,-0.0001399298
74.79943,-0.0001397979
74.89943,-0.0001396322
74.99943,-0.0001394344
75.09943,-0.0001392856
75.19942,-0.0001391519
75.29942,-0.0001390097
75.39942,-0.0001388176
75.49942,-0.0001387083
75.59942,-0.0001385492
75.69942,-0.0001383448
75.79942,-0.000138197
75.89941,-0.0001380331
75.99941,-0.0001378335
76.09941,-0.0001377327
76.19941,-0.0001375792
76.29941,-0.0001374144
76.39941,-0.0001372873
76.4994,-0.0001370952
76.5994,-0.0001369143
76.6994,-0.0001368522
76.7994,-0.0001366648
76.8994,-0.0001364755
76.9994,-0.0001363173
77.0994,-0.0001361798
77.19939,-0.0001360131
77.29939,-0.0001358963
77.39939,-0.0001357155
77.49939,-0.0001355168
77.59939,-0.000135385
77.69939,-0.0001352673
77.79939,-0.000135078
77.89938,-0.0001349377
77.99938,-0.0001347973
78.09938,-0.0001346551
78.19938,-0.0001345063
78.29938,-0.0001343331
78.39938,-0.000134141
78.49937,-0.0001340242
78.59937,-0.0001338848
78.69937,-0.0001337172
78.79937,-0.0001335919
78.89937,-0.0001334403
78.99937,-0.0001332812
79.09937,-0.0001331813
79.19936,-0.000133057
79.29936,-0.0001328913
79.39936,-0.0001327387
79.49936,-0.0001326012
79.59936,-0.0001324449
79.69936,-0.0001323046
79.79935,-0.0001321586
79.89935,-0.0001319863
79.99935,-0.0001318912
80.09935,-0.0001317772
80.19935,-0.0001315926
80.29935,-0.0001314288
80.39935,-0.0001312734
80.49934,-0.000131117
80.59934,-0.000131037
80.69934,-0.0001309231
80.79934,-0.000130762
80.89934,-0.0001306132
80.99934,-0.0001304607
81.09933,-0.0001303354
81.19933,-0.0001302394
81.29933,-0.0001301085
81.39933,-0.0001299323
81.49933,-0.0001298033
81.59933,-0.0001297007
81.69933,-0.0001295171
81.79932,-0.0001293946
81.89932,-0.0001292308
81.99932,-0.0001291074
82.09932,-0.0001290019
82.19932,-0.0001288522
82.29932,-0.000128694
82.39931,-0.000128548
82.49931,-0.0001284115
82.59931,-0.0001282532
82.69931,-0.0001281553
82.79931,-0.0001280385
82.89931,-0.0001279029
82.99931,-0.0001278003
83.0993,-0.0001276571
83.1993,-0.0001275469
83.2993,-0.0001274292
83.3993,-0.0001273426
83.4993,-0.0001272089
83.5993,-0.0001270525
83.6993,-0.0001269555
83.79929,-0.0001268227
83.89929,-0.0001266843
83.99929,-0.0001265845
84.09929,-0.0001264235
84.19929,-0.0001262765
84.29929,-0.0001261711
84.39928,-0.0001260487
84.49928,-0.0001258829
84.59928,-0.000125785
84.69928,-0.000125688
84.79928,-0.0001254695
84.89928,-0.0001254092
84.99928,-0.000125267
85.09927,-0.0001251305
85.19927,-0.000125057
85.29927,-0.000124976
85.39927,-0.000124766
85.49927,-0.0001246878
85.59927,-0.0001245259
85.69926,-0.0001243808
85.79926,-0.0001243017
85.89926,-0.0001241812
85.99926,-0.0001240183
86.09926,-0.0001239213
86.19926,-0.0001237574
86.29926,-0.0001236246
86.39925,-0.0001235757
86.49925,-0.0001234401
86.59925,-0.0001232771
86.69925,-0.000123166
86.79925,-0.0001230586
86.89925,-0.0001229014
86.99924,-0.0001228242
87.09924,-0.0001226707
87.19924,-0.0001225303
87.29924,-0.0001224117
87.39924,-0.0001223137
87.49924,-0.0001221659
87.59924,-0.0001220679
87.69923,-0.0001219455
87.79923,-0.0001217628
87.89923,-0.0001216592
87.99923,-0.0001215764
88.09923,-0.0001214182
