EXPID. 1189
[电化学]: CV : 0 >> 0.7 >> 0 >> 0(V) @ 0.01(V/s) X 10(Seg)
起始电位 (V),0
上限电位 (V),0.7
下限电位 (V),0
终止电位 (V),0
扫速 (V/s),0.01
电解液 信息:
KOH,1
0.001,-8.472877E-06
0.002,-8.037578E-06
0.003,-7.758619E-06
0.004,-7.424482E-06
0.005,-7.15472E-06
0.006,-6.863499E-06
0.007,-6.507903E-06
0.008,-6.192158E-06
0.009,-5.928526E-06
0.01,-5.658764E-06
0.011,-5.401263E-06
0.012,-5.180549E-06
0.013,-5.027274E-06
0.014,-4.782036E-06
0.015,-4.631827E-06
0.016,-4.429505E-06
0.017,-4.147481E-06
0.018,-3.850129E-06
0.019,-3.595694E-06
0.02,-3.350456E-06
0.021,-3.215574E-06
0.022,-3.022449E-06
0.023,-2.853847E-06
0.024,-2.703639E-06
0.025,-2.562627E-06
0.026,-2.314323E-06
0.027,-2.04456E-06
0.028,-1.78706E-06
0.029,-1.578607E-06
0.03,-1.471315E-06
0.031,-1.302713E-06
0.032,-1.127981E-06
0.033,-1.017623E-06
0.034,-8.091707E-07
0.035,-6.712239E-07
0.036,-4.566402E-07
0.037,-1.899432E-07
0.038,2.157511E-08
0.039,1.687183E-07
0.04,3.311889E-07
0.041,4.84463E-07
0.042,6.254752E-07
0.043,7.235706E-07
0.044,8.492554E-07
0.045,9.902676E-07
0.046,1.183393E-06
0.047,1.465417E-06
0.048,1.643215E-06
0.049,1.775031E-06
0.05,1.974287E-06
0.051,2.029466E-06
0.052,2.179675E-06
0.053,2.30536E-06
0.054,2.357473E-06
0.055,2.553664E-06
0.056,2.700807E-06
0.057,2.903129E-06
0.058,3.179022E-06
0.059,3.286314E-06
0.06,3.369082E-06
0.061,3.482505E-06
0.062,3.598993E-06
0.063,3.746136E-06
0.064,3.841166E-06
0.065,3.933131E-06
0.066,4.120126E-06
0.067,4.300989E-06
0.068,4.5309E-06
0.069,4.674977E-06
0.07,4.779204E-06
0.071,4.923282E-06
0.072,4.990723E-06
0.073,5.107211E-06
0.074,5.174651E-06
0.075,5.266616E-06
0.076,5.472003E-06
0.077,5.619146E-06
0.078,5.787748E-06
0.079,6.014594E-06
0.08,6.115754E-06
0.081,6.201588E-06
0.082,6.339534E-06
0.083,6.431499E-06
0.084,6.554118E-06
0.085,6.621559E-06
0.086,6.676737E-06
0.087,6.866798E-06
0.088,7.001679E-06
0.089,7.191739E-06
0.09,7.415519E-06
0.091,7.541204E-06
0.092,7.623972E-06
0.093,7.731263E-06
0.094,7.774181E-06
0.095,7.93052E-06
0.096,7.979568E-06
0.097,8.105253E-06
0.098,8.264657E-06
0.099,8.427128E-06
0.1,8.638646E-06
0.101,8.712218E-06
0.102,8.859362E-06
0.103,8.98198E-06
0.104,9.04329E-06
0.105,9.129123E-06
0.106,9.239481E-06
0.107,9.291594E-06
0.108,9.438738E-06
0.109,9.530702E-06
0.11,9.683976E-06
0.111,9.831119E-06
0.112,9.916953E-06
0.113,1.01254E-05
0.114,1.024496E-05
0.115,1.041663E-05
0.116,1.05607E-05
0.117,1.061895E-05
0.118,1.080594E-05
0.119,1.09071E-05
0.12,1.096228E-05
0.121,1.106957E-05
0.122,1.115847E-05
0.123,1.122591E-05
0.124,1.136386E-05
0.125,1.153553E-05
0.126,1.158764E-05
0.127,1.175318E-05
0.128,1.195243E-05
0.129,1.213636E-05
0.13,1.229883E-05
0.131,1.240306E-05
0.132,1.246437E-05
0.133,1.261764E-05
0.134,1.273413E-05
0.135,1.283223E-05
0.136,1.290886E-05
0.137,1.303761E-05
0.138,1.313571E-05
0.139,1.320621E-05
0.14,1.336869E-05
0.141,1.349437E-05
0.142,1.360779E-05
0.143,1.38469E-05
0.144,1.392354E-05
0.145,1.406455E-05
0.146,1.426074E-05
0.147,1.437416E-05
0.148,1.461021E-05
0.149,1.475735E-05
0.15,1.484318E-05
0.151,1.496887E-05
0.152,1.510988E-05
0.153,1.522637E-05
0.154,1.537658E-05
0.155,1.545934E-05
0.156,1.562488E-05
0.157,1.57383E-05
0.158,1.584253E-05
0.159,1.597741E-05
0.16,1.614908E-05
0.161,1.619506E-05
0.162,1.632994E-05
0.163,1.64403E-05
0.164,1.655679E-05
0.165,1.667021E-05
0.166,1.682042E-05
0.167,1.697369E-05
0.168,1.706566E-05
0.169,1.720054E-05
0.17,1.739673E-05
0.171,1.748869E-05
0.172,1.768488E-05
0.173,1.786881E-05
0.174,1.799756E-05
0.175,1.819989E-05
0.176,1.829798E-05
0.177,1.84206E-05
0.178,1.858307E-05
0.179,1.86689E-05
0.18,1.879459E-05
0.181,1.891721E-05
0.182,1.897239E-05
0.183,1.914405E-05
0.184,1.926361E-05
0.185,1.933718E-05
0.186,1.949659E-05
0.187,1.957322E-05
0.188,1.972343E-05
0.189,1.989816E-05
0.19,2.004224E-05
0.191,2.018019E-05
0.192,2.035186E-05
0.193,2.049593E-05
0.194,2.072278E-05
0.195,2.082087E-05
0.196,2.098641E-05
0.197,2.110903E-05
0.198,2.124391E-05
0.199,2.138492E-05
0.2,2.150448E-05
0.201,2.165469E-05
0.202,2.178344E-05
0.203,2.184781E-05
0.204,2.193671E-05
0.205,2.214516E-05
0.206,2.227085E-05
0.207,2.237508E-05
0.208,2.251302E-05
0.209,2.266323E-05
0.21,2.279198E-05
0.211,2.286862E-05
0.212,2.304948E-05
0.213,2.310159E-05
0.214,2.326713E-05
0.215,2.346945E-05
0.216,2.356448E-05
0.217,2.373002E-05
0.218,2.393234E-05
0.219,2.40243E-05
0.22,2.420517E-05
0.221,2.473961E-05
0.222,2.489288E-05
0.223,2.510747E-05
0.224,2.52914E-05
0.225,2.538336E-05
0.226,2.553664E-05
0.227,2.565926E-05
0.228,2.581253E-05
0.229,2.599646E-05
0.23,2.608842E-05
0.231,2.630301E-05
0.232,2.642563E-05
0.233,2.654824E-05
0.234,2.670152E-05
0.235,2.682414E-05
0.236,2.697741E-05
0.237,2.706938E-05
0.238,2.725331E-05
0.239,2.740658E-05
0.24,2.759051E-05
0.241,2.768247E-05
0.242,2.789706E-05
0.243,2.801968E-05
0.244,2.826491E-05
0.245,2.841819E-05
0.246,2.857147E-05
0.247,2.88167E-05
0.248,2.900063E-05
0.249,2.918456E-05
0.25,2.939914E-05
0.251,2.955242E-05
0.252,2.973635E-05
0.253,2.985897E-05
0.254,3.004289E-05
0.255,3.016552E-05
0.256,3.03801E-05
0.257,3.053337E-05
0.258,3.068665E-05
0.259,3.080927E-05
0.26,3.102385E-05
0.261,3.114647E-05
0.262,3.129974E-05
0.263,3.157564E-05
0.264,3.169826E-05
0.265,3.191284E-05
0.266,3.212742E-05
0.267,3.234201E-05
0.268,3.267921E-05
0.269,3.286314E-05
0.27,3.292445E-05
0.271,3.313903E-05
0.272,3.332296E-05
0.273,3.347624E-05
0.274,3.372148E-05
0.275,3.38441E-05
0.276,3.399737E-05
0.277,3.424261E-05
0.278,3.442654E-05
0.279,3.470243E-05
0.28,3.494767E-05
0.281,3.516225E-05
0.282,3.537684E-05
0.283,3.556077E-05
0.284,3.583666E-05
0.285,3.598993E-05
0.286,3.614321E-05
0.287,3.64191E-05
0.288,3.654172E-05
0.289,3.672565E-05
0.29,3.700154E-05
0.291,3.715482E-05
0.292,3.743071E-05
0.293,3.767595E-05
0.294,3.795184E-05
0.295,3.822774E-05
0.296,3.847297E-05
0.297,3.86569E-05
0.298,3.890214E-05
0.299,3.911672E-05
0.3,3.933131E-05
0.301,3.948458E-05
0.302,3.969917E-05
0.303,3.99444E-05
0.304,4.028161E-05
0.305,4.061881E-05
0.306,4.089471E-05
0.307,4.11706E-05
0.308,4.135453E-05
0.309,4.156911E-05
0.31,4.181435E-05
0.311,4.202893E-05
0.312,4.224352E-05
0.313,4.248875E-05
0.314,4.27953E-05
0.315,4.313251E-05
0.316,4.346971E-05
0.317,4.371495E-05
0.318,4.396019E-05
0.319,4.426674E-05
0.32,4.451197E-05
0.321,4.472656E-05
0.322,4.500245E-05
0.323,4.518638E-05
0.324,4.552358E-05
0.325,4.583013E-05
0.326,4.613668E-05
0.327,4.647388E-05
0.328,4.681108E-05
0.329,4.711764E-05
0.33,4.742418E-05
0.331,4.770008E-05
0.332,4.803728E-05
0.333,4.822121E-05
0.334,4.852776E-05
0.335,4.886496E-05
0.336,4.914085E-05
0.337,4.941675E-05
0.338,4.975395E-05
0.339,5.002984E-05
0.34,5.045901E-05
0.341,5.079621E-05
0.342,5.116407E-05
0.343,5.156258E-05
0.344,5.193044E-05
0.345,5.226765E-05
0.346,5.260485E-05
0.347,5.288074E-05
0.348,5.330991E-05
0.349,5.35858E-05
0.35,5.389235E-05
0.351,5.429086E-05
0.352,5.456676E-05
0.353,5.493462E-05
0.354,5.527182E-05
0.355,5.567033E-05
0.356,5.613015E-05
0.357,5.655932E-05
0.358,5.698849E-05
0.359,5.741765E-05
0.36,5.775486E-05
0.361,5.815337E-05
0.362,5.858254E-05
0.363,5.891974E-05
0.364,5.931826E-05
0.365,5.974742E-05
0.366,6.011528E-05
0.367,6.054445E-05
0.368,6.100427E-05
0.369,6.14641E-05
0.37,6.189326E-05
0.371,6.241439E-05
0.372,6.296618E-05
0.373,6.345665E-05
0.374,6.397779E-05
0.375,6.440695E-05
0.376,6.486678E-05
0.377,6.541856E-05
0.378,6.581708E-05
0.379,6.630756E-05
0.38,6.689E-05
0.381,6.738048E-05
0.382,6.79016E-05
0.383,6.839208E-05
0.384,6.894387E-05
0.385,6.9465E-05
0.386,7.004744E-05
0.387,7.062989E-05
0.388,7.130429E-05
0.389,7.194804E-05
0.39,7.262245E-05
0.391,7.317423E-05
0.392,7.378733E-05
0.393,7.436977E-05
0.394,7.507483E-05
0.395,7.562662E-05
0.396,7.630103E-05
0.397,7.703674E-05
0.398,7.764984E-05
0.399,7.838555E-05
0.4,7.905996E-05
0.401,7.976502E-05
0.402,8.047008E-05
0.403,8.114449E-05
0.404,8.206413E-05
0.405,8.279985E-05
0.406,8.356622E-05
0.407,8.442456E-05
0.408,8.512961E-05
0.409,8.620253E-05
0.41,8.715284E-05
0.411,8.798052E-05
0.412,8.899212E-05
0.413,8.988111E-05
0.414,9.080076E-05
0.415,9.190433E-05
0.416,9.288529E-05
0.417,9.377428E-05
0.418,9.490851E-05
0.419,9.592011E-05
0.42,9.711565E-05
0.421,9.812726E-05
0.422,9.93228E-05
0.423,0.000100549
0.424,0.0001017445
0.425,0.0001029707
0.426,0.0001043195
0.427,0.0001056683
0.428,0.0001072317
0.429,0.0001086419
0.43,0.0001101746
0.431,0.00011183
0.432,0.0001134547
0.433,0.000115202
0.434,0.0001170106
0.435,0.0001186353
0.436,0.0001206892
0.437,0.0001226205
0.438,0.0001246743
0.439,0.0001270041
0.44,0.0001291806
0.441,0.0001315717
0.442,0.0001342693
0.443,0.0001368136
0.444,0.0001397565
0.445,0.0001426994
0.446,0.0001458262
0.447,0.0001493208
0.448,0.0001528768
0.449,0.0001567393
0.45,0.0001607551
0.451,0.0001649854
0.452,0.0001697982
0.453,0.0001745191
0.454,0.0001798224
0.455,0.0001857694
0.456,0.0001917471
0.457,0.0001984912
0.458,0.0002059096
0.459,0.0002133281
0.46,0.0002222793
0.461,0.0002315984
0.462,0.0002414386
0.463,0.0002525356
0.464,0.0002643684
0.465,0.0002773967
0.466,0.0002918045
0.467,0.0003111582
0.468,0.0003280183
0.469,0.0003464112
0.47,0.0003666434
0.471,0.0003890214
0.472,0.0004129322
0.473,0.000440215
0.474,0.0004693371
0.475,0.000500605
0.476,0.0005355515
0.477,0.0005726438
0.478,0.0006131082
0.479,0.0006572512
0.48,0.0007035399
0.481,0.0007532008
0.482,0.0008050074
0.483,0.0008580403
0.484,0.0009144452
0.485,0.0009693173
0.486,0.001024496
0.487,0.001080594
0.488,0.00113424
0.489,0.001186966
0.49,0.001239386
0.491,0.001289354
0.492,0.001339321
0.493,0.001388062
0.494,0.001436497
0.495,0.001486464
0.496,0.001535818
0.497,0.001587625
0.498,0.001641271
0.499,0.001697369
0.5,0.001757453
0.501,0.001817843
0.502,0.001883444
0.503,0.001953337
0.504,0.002025376
0.505,0.002104159
0.506,0.002187234
0.507,0.002273067
0.508,0.002367178
0.509,0.00246374
0.51,0.002566127
0.511,0.002675259
0.512,0.00279144
0.513,0.002910688
0.514,0.003036372
0.515,0.003197415
0.516,0.003335362
0.517,0.003476374
0.518,0.003623517
0.519,0.003779857
0.52,0.003939262
0.521,0.004107863
0.522,0.00427953
0.523,0.004457328
0.524,0.004641257
0.525,0.004831317
0.526,0.005027508
0.527,0.005226764
0.528,0.005432152
0.529,0.005646735
0.53,0.005861319
0.531,0.0060851
0.532,0.006311945
0.533,0.006541857
0.534,0.006780964
0.535,0.007023137
0.536,0.00726531
0.537,0.00751668
0.538,0.007774181
0.539,0.008031681
0.54,0.008295313
0.541,0.00856201
0.542,0.008831772
0.543,0.009110731
0.544,0.00938969
0.545,0.009668648
0.546,0.009956804
0.547,0.01024496
0.548,0.01053618
0.549,0.01083353
0.55,0.01112782
0.551,0.0114313
0.552,0.01173478
0.553,0.01204133
0.554,0.01235094
0.555,0.01266056
0.556,0.01297324
0.557,0.01329205
0.558,0.01361392
0.559,0.01392967
0.56,0.01425768
0.561,0.01458568
0.562,0.01490756
0.563,0.01524476
0.564,0.01558196
0.565,0.0159069
0.566,0.01625024
0.567,0.01659357
0.568,0.01692771
0.569,0.01728024
0.57,0.01762664
0.571,0.01796998
0.572,0.01832251
0.573,0.01867197
0.574,0.0190245
0.575,0.01938316
0.576,0.01974182
0.577,0.02010049
0.578,0.02045915
0.579,0.02082394
0.58,0.0211826
0.581,0.02154433
0.582,0.02191832
0.583,0.02227698
0.584,0.02265097
0.585,0.02302496
0.586,0.02338975
0.587,0.0237668
0.588,0.02414692
0.589,0.02451172
0.59,0.0248949
0.591,0.02527502
0.592,0.02564595
0.593,0.02603219
0.594,0.02641232
0.595,0.02679243
0.596,0.02718788
0.597,0.02756494
0.598,0.02794812
0.599,0.02833744
0.6,0.02871756
0.601,0.02910994
0.602,0.02950539
0.603,0.02988857
0.604,0.03105451
0.605,0.03145302
0.606,0.03182088
0.607,0.03225004
0.608,0.0326179
0.609,0.03301642
0.61,0.03344558
0.611,0.03384409
0.612,0.03424261
0.613,0.03464112
0.614,0.03503963
0.615,0.03543815
0.616,0.03583666
0.617,0.03626583
0.618,0.03666434
0.619,0.03706285
0.62,0.03749202
0.621,0.03789053
0.622,0.0383197
0.623,0.03874887
0.624,0.03914738
0.625,0.03957655
0.626,0.03997506
0.627,0.04037357
0.628,0.04080274
0.629,0.04123191
0.63,0.04163042
0.631,0.04205959
0.632,0.04248876
0.633,0.04288727
0.634,0.04331644
0.635,0.04371495
0.636,0.04414412
0.637,0.04457328
0.638,0.0449718
0.639,0.04540097
0.64,0.04583013
0.641,0.0462593
0.642,0.04665781
0.643,0.04708698
0.644,0.04751615
0.645,0.04794532
0.646,0.04837449
0.647,0.04880365
0.648,0.04923282
0.649,0.04966199
0.65,0.0500605
0.651,0.05048966
0.652,0.05091884
0.653,0.051348
0.654,0.05177717
0.655,0.05220634
0.656,0.0526355
0.657,0.05306467
0.658,0.05349384
0.659,0.05392301
0.66,0.05435218
0.661,0.05478134
0.662,0.05521051
0.663,0.05567033
0.664,0.0560995
0.665,0.05649801
0.666,0.05695784
0.667,0.057387
0.668,0.05781617
0.669,0.05824534
0.67,0.05870516
0.671,0.05913433
0.672,0.0595635
0.673,0.05999266
0.674,0.06042183
0.675,0.06088165
0.676,0.06131082
0.677,0.06173999
0.678,0.06216915
0.679,0.06262898
0.68,0.06305815
0.681,0.06351797
0.682,0.06394713
0.683,0.0643763
0.684,0.06483613
0.685,0.06526529
0.686,0.06569446
0.687,0.06615429
0.688,0.06658345
0.689,0.06701262
0.69,0.06747244
0.691,0.0679016
0.692,0.06833078
0.693,0.0687906
0.694,0.06921976
0.695,0.06967959
0.696,0.07013941
0.697,0.07056858
0.698,0.07099774
0.699,0.07145756
0.7,0.07161084
0.6990001,0.07115102
0.6980001,0.07075251
0.6970001,0.07029268
0.6960001,0.06986352
0.6950001,0.069465
0.6940001,0.06900518
0.6930001,0.06857602
0.6920001,0.06814685
0.6910001,0.06771768
0.6900001,0.06728851
0.6890001,0.06688999
0.6880001,0.06646083
0.6870001,0.06603166
0.6860001,0.0656025
0.6850001,0.06517333
0.6840001,0.06474417
0.6830001,0.06434565
0.6820001,0.06391648
0.6810001,0.06345665
0.6800001,0.06305815
0.6790001,0.06265964
0.6780001,0.06219981
0.6770001,0.0618013
0.6760001,0.06137213
0.6750001,0.06091231
0.6740001,0.06051379
0.6730001,0.06008463
0.6720001,0.05965546
0.6710001,0.05925695
0.6700001,0.05882778
0.6690001,0.05839861
0.6680001,0.0580001
0.6670001,0.05757093
0.6660001,0.05714176
0.6650001,0.0567126
0.6640001,0.05631408
0.6630001,0.05588492
0.6620001,0.05548641
0.6610001,0.05505724
0.6600001,0.05462807
0.6590001,0.0541989
0.6580001,0.05380039
0.6570001,0.05337122
0.6560001,0.05294205
0.6550001,0.05254354
0.6540001,0.05214503
0.6530001,0.05171586
0.6520001,0.05128669
0.6510001,0.05088818
0.6500001,0.05045901
0.6490001,0.0500605
0.6480001,0.04966199
0.6470001,0.04923282
0.6460001,0.04883431
0.6450001,0.04843579
0.6440001,0.04800662
0.6430001,0.04760811
0.6420001,0.04717895
0.6410001,0.04678043
0.6400001,0.04638192
0.6390001,0.04595275
0.6380001,0.04555424
0.6370001,0.04515573
0.6360001,0.04472656
0.6350001,0.04432805
0.6340001,0.04392953
0.6330001,0.04353102
0.6320001,0.04310185
0.6310001,0.04270334
0.6300001,0.04230483
0.6290001,0.04190632
0.6280001,0.0415078
0.6270001,0.04110929
0.6260001,0.04068012
0.6250001,0.04031226
0.6240001,0.03991375
0.6230001,0.03948459
0.6220001,0.03908607
0.6210001,0.03871821
0.6200001,0.03828905
0.6190001,0.03789053
0.6180001,0.03752267
0.6170001,0.03709351
0.6160001,0.03672565
0.6150001,0.03632713
0.6140001,0.03592863
0.6130001,0.03553011
0.6120001,0.0351316
0.6110001,0.03476374
0.6100001,0.03436523
0.6090001,0.03399737
0.6080001,0.03359886
0.6070001,0.03320035
0.6060001,0.03283248
0.6050001,0.03243398
0.6040001,0.03203546
0.6030001,0.0316676
0.6020001,0.03126909
0.6010001,0.03090123
0.6000001,0.03050272
0.5990001,0.03013486
0.5980001,0.02973635
0.5970001,0.02936849
0.5960001,0.02896998
0.5950001,0.02860212
0.5940001,0.02823426
0.5930001,0.02786641
0.5920001,0.02746789
0.5910001,0.02713069
0.5900001,0.02673218
0.5890001,0.02639497
0.5880001,0.02599646
0.5870001,0.0256286
0.5860001,0.02526074
0.5850001,0.02489289
0.5840001,0.02455568
0.5830001,0.02418783
0.5820001,0.02381997
0.5810001,0.02345211
0.5800001,0.02311491
0.5790001,0.02274705
0.5780001,0.02237919
0.5770001,0.02201133
0.5760001,0.02167413
0.5750001,0.02130627
0.5740001,0.02096907
0.5730001,0.02063187
0.5720001,0.02026401
0.5710001,0.01992681
0.5700001,0.0195896
0.5690001,0.0192524
0.5680001,0.0189152
0.5670001,0.01857799
0.5660001,0.01824079
0.5650001,0.01790359
0.5640001,0.01756638
0.5630001,0.01722918
0.5620001,0.01689198
0.5610001,0.01658543
0.5600001,0.01624822
0.5590001,0.01591102
0.5580001,0.01560447
0.5570001,0.01529793
0.5560001,0.01496072
0.5550001,0.01465417
0.5540001,0.01431697
0.5530001,0.01401042
0.5520001,0.01370388
0.5510001,0.01339733
0.5500001,0.01259925
0.5490001,0.01229577
0.5480001,0.01200761
0.5470001,0.01171332
0.5460001,0.01141904
0.5450001,0.01113701
0.5440001,0.01085192
0.5430001,0.01056377
0.5420001,0.01029094
0.5410001,0.01001198
0.5400001,0.009736089
0.5390001,0.009469392
0.5380001,0.009202695
0.5370001,0.008935998
0.5360001,0.008678498
0.5350001,0.008417931
0.5340001,0.008163497
0.5330001,0.007915192
0.5320001,0.007666889
0.5310001,0.00742165
0.5300001,0.007182543
0.5290001,0.0069465
0.5280001,0.006713524
0.5270001,0.006480547
0.5260001,0.006256767
0.5250001,0.006032987
0.5240001,0.005812271
0.5230001,0.005603819
0.5220001,0.0053923
0.5210001,0.005183848
0.5200001,0.004984592
0.5190001,0.004785335
0.5180001,0.00459221
0.5170001,0.004405215
0.5160001,0.004218221
0.5150001,0.004040423
0.5140001,0.003862625
0.5130001,0.003690958
0.5120001,0.003522356
0.5110001,0.00335682
0.5100001,0.00320048
0.5090001,0.003047206
0.5080001,0.002896998
0.5070001,0.00275292
0.5060001,0.002611908
0.5050001,0.002477027
0.5040001,0.002345211
0.5030001,0.002216461
0.5020001,0.002093841
0.5010001,0.001977353
0.5000001,0.001860865
0.4990001,0.001753573
0.4980001,0.001646281
0.4970001,0.001548185
0.4960001,0.00145009
0.4950001,0.00135506
0.4940001,0.001266161
0.4930001,0.001149568
0.4920001,0.001067106
0.4910001,0.0009901626
0.4900001,0.0009156714
0.4890001,0.0008436325
0.4880001,0.0007780312
0.4870001,0.0007121233
0.4860001,0.0006514268
0.4850001,0.0005941023
0.4840001,0.0005383104
0.4830001,0.0004861972
0.4820001,0.0004371495
0.4810001,0.0003902476
0.4800001,0.0003464112
0.4790001,0.0003041076
0.4780001,0.0002648694
0.4770001,0.0002283901
0.4760001,0.000192524
0.4750001,0.0001609495
0.4740001,0.0001290685
0.4730001,9.963987E-05
0.4720001,6.952632E-05
0.4710001,4.377626E-05
0.4700001,2.05399E-05
0.4690001,-1.225026E-06
0.4680001,-2.323519E-05
0.4670001,-4.196529E-05
0.4660001,-5.971443E-05
0.4650001,-7.786209E-05
0.4640001,-9.236182E-05
0.4630001,-0.0001080264
0.4620001,-0.0001219131
0.4610001,-0.0001347268
0.4600001,-0.0001472953
0.4590001,-0.0001575646
0.4580001,-0.0001676194
0.4570001,-0.0001775822
0.4560001,-0.0001853073
0.4550001,-0.0001945957
0.4540001,-0.0002017382
0.4530001,-0.0002082064
0.4520001,-0.000215165
0.4510001,-0.0002206523
0.4500001,-0.0002262314
0.4490001,-0.0002315654
0.4480001,-0.0002354279
0.4470001,-0.0002406392
0.4460001,-0.0002439806
0.4450001,-0.0002468622
0.4440001,-0.0002509699
0.4430001,-0.0002529624
0.4420001,-0.0002555068
0.4410001,-0.0002584803
0.4400001,-0.0002592467
0.4390001,-0.0002615765
0.4380001,-0.0002630785
0.4370001,-0.0002637836
0.4360001,-0.0002656842
0.4350001,-0.0002660827
0.4340001,-0.0002664812
0.4330001,-0.0002673089
0.4320001,-0.0002669717
0.4310001,-0.0002675848
0.4300001,-0.0002674009
0.4290001,-0.000267125
0.4280001,-0.0002673089
0.4270001,-0.0002660214
0.4260001,-0.0002655003
0.4250001,-0.0002647952
0.4240001,-0.0002630479
0.4230001,-0.0002626494
0.4220001,-0.0002612086
0.4210001,-0.000259308
0.4200001,-0.0002582044
0.4190001,-0.0002560892
0.4180001,-0.0002542193
0.4170001,-0.0002526252
0.4160001,-0.0002502955
0.4150001,-0.0002484255
0.4140001,-0.0002460344
0.4130001,-0.0002432449
0.4120001,-0.000241099
0.4110001,-0.0002382175
0.4100001,-0.0002362249
0.4090001,-0.0002334966
0.4080001,-0.00022991
0.4070001,-0.0002269058
0.4060001,-0.0002237484
0.4050001,-0.0002202537
0.4040001,-0.0002171883
0.4030001,-0.0002137243
0.4020001,-0.0002102603
0.4010001,-0.0002069496
0.4000001,-0.0002032403
0.3990001,-0.0001999909
0.3980001,-0.0001963736
0.3970001,-0.0001926338
0.3960001,-0.0001892617
0.3950001,-0.0001853992
0.3940001,-0.0001818433
0.3930001,-0.0001784099
0.3920001,-0.0001746394
0.3910001,-0.0001712674
0.3900001,-0.0001679566
0.3890001,-0.0001644313
0.3880001,-0.0001611513
0.3870001,-0.0001577486
0.3860001,-0.0001544992
0.3850001,-0.0001513111
0.3840001,-0.0001479697
0.3830001,-0.0001448735
0.3820001,-0.0001418387
0.3810001,-0.0001388345
