EXPID. 1007
[电化学]: CV : 0 >> 0.7 >> 0 >> 0(V) @ 0.01(V/s) X 10(Seg)
起始电位 (V),0
上限电位 (V),0.7
下限电位 (V),0
终止电位 (V),0
扫速 (V/s),0.01
电解液 信息:
KOH,1
0.001,6.793225E-05
0.002,7.108971E-05
0.003,7.354209E-05
0.004,7.605579E-05
0.005,7.83549E-05
0.006,8.050074E-05
0.007,8.279985E-05
0.008,8.497635E-05
0.009,8.718349E-05
0.01,8.960522E-05
0.011,9.187368E-05
0.012,9.438737E-05
0.013,9.683976E-05
0.014,9.920018E-05
0.015,0.0001018671
0.016,0.0001044422
0.017,0.0001070785
0.018,0.0001099294
0.019,0.0001127496
0.02,0.0001158764
0.021,0.0001188193
0.022,0.0001218847
0.023,0.0001252261
0.024,0.0001285675
0.025,0.0001319395
0.026,0.0001357101
0.027,0.0001392967
0.028,0.0001433738
0.029,0.0001472976
0.03,0.0001513747
0.031,0.0001557583
0.032,0.000160142
0.033,0.0001647709
0.034,0.000169645
0.035,0.0001744578
0.036,0.0001797611
0.037,0.000185095
0.038,0.0001906435
0.039,0.0001965599
0.04,0.0002025376
0.041,0.0002088218
0.042,0.0002154739
0.043,0.0002221567
0.044,0.0002296058
0.045,0.0002370243
0.046,0.0002447799
0.047,0.0002532407
0.048,0.0002616094
0.049,0.0002705607
0.05,0.0002800943
0.051,0.0002898425
0.052,0.0003044141
0.053,0.0003148368
0.054,0.0003261791
0.055,0.0003381344
0.056,0.0003503964
0.057,0.0003632714
0.058,0.0003770661
0.059,0.0003911673
0.06,0.0004064947
0.061,0.0004218221
0.062,0.0004377626
0.063,0.0004552359
0.064,0.0004727091
0.065,0.000491102
0.066,0.0005104145
0.067,0.0005300336
0.068,0.0005511855
0.069,0.0005720307
0.07,0.0005944088
0.071,0.0006177064
0.072,0.0006410041
0.073,0.0006655279
0.074,0.0006909714
0.075,0.0007167216
0.076,0.0007443109
0.077,0.0007719002
0.078,0.0008001027
0.079,0.0008298379
0.08,0.0008595731
0.081,0.0008905344
0.082,0.0009224154
0.083,0.0009542964
0.084,0.0009880167
0.085,0.001021737
0.086,0.001056377
0.087,0.001092243
0.088,0.001127803
0.089,0.001164895
0.09,0.001202601
0.091,0.001240306
0.092,0.001279851
0.093,0.001319089
0.094,0.001359247
0.095,0.001400631
0.096,0.001441708
0.097,0.001484012
0.098,0.001526929
0.099,0.001570152
0.1,0.001615521
0.101,0.001659357
0.102,0.001705953
0.103,0.001753468
0.104,0.001799143
0.105,0.001847272
0.106,0.001896626
0.107,0.00194506
0.108,0.00199656
0.109,0.002048061
0.11,0.002099561
0.111,0.00215382
0.112,0.002208079
0.113,0.002264177
0.114,0.002322115
0.115,0.002381585
0.116,0.002443201
0.117,0.002505124
0.118,0.002569806
0.119,0.002637246
0.12,0.002704994
0.121,0.002777952
0.122,0.00285275
0.123,0.002928774
0.124,0.003011235
0.125,0.003126909
0.126,0.003212743
0.127,0.003301642
0.128,0.003396671
0.129,0.003494767
0.13,0.003595928
0.131,0.00370322
0.132,0.003813577
0.133,0.003930065
0.134,0.004049619
0.135,0.004175304
0.136,0.004304054
0.137,0.00443587
0.138,0.004576882
0.139,0.004717894
0.14,0.004868103
0.141,0.005018312
0.142,0.005174651
0.143,0.005337122
0.144,0.005499593
0.145,0.005671259
0.146,0.005842926
0.147,0.006020725
0.148,0.006204653
0.149,0.006385517
0.15,0.006572511
0.151,0.006765637
0.152,0.006958762
0.153,0.007154953
0.154,0.007357275
0.155,0.007556531
0.156,0.007761919
0.157,0.007967305
0.158,0.008175759
0.159,0.008387277
0.16,0.008598795
0.161,0.008813379
0.162,0.009031028
0.163,0.009242547
0.164,0.009466327
0.165,0.00968091
0.166,0.00989856
0.167,0.01012234
0.168,0.01033999
0.169,0.0105607
0.17,0.01078142
0.171,0.01100213
0.172,0.01122591
0.173,0.01144356
0.174,0.01166734
0.175,0.01188806
0.176,0.01210877
0.177,0.01232949
0.178,0.01254714
0.179,0.01276479
0.18,0.0129855
0.181,0.01320008
0.182,0.01341773
0.183,0.01363538
0.184,0.01384997
0.185,0.01406762
0.186,0.0142822
0.187,0.01449065
0.188,0.0147083
0.189,0.01491675
0.19,0.01512521
0.191,0.01533672
0.192,0.01554518
0.193,0.01575056
0.194,0.01595902
0.195,0.01616134
0.196,0.01636366
0.197,0.01656598
0.198,0.01676831
0.199,0.0169645
0.2,0.01716069
0.201,0.01736301
0.202,0.01755613
0.203,0.01774619
0.204,0.01793932
0.205,0.01813858
0.206,0.01831944
0.207,0.01851563
0.208,0.01869036
0.209,0.01888042
0.21,0.01906129
0.211,0.01923908
0.212,0.01941688
0.213,0.01959468
0.214,0.01976635
0.215,0.01993801
0.216,0.02010662
0.217,0.02027522
0.218,0.02044075
0.219,0.02060322
0.22,0.02076263
0.221,0.0209159
0.222,0.02107531
0.223,0.02122552
0.224,0.02137266
0.225,0.02152287
0.226,0.02166388
0.227,0.02180183
0.228,0.02194591
0.229,0.02207159
0.23,0.02220034
0.231,0.02232909
0.232,0.02244865
0.233,0.02257127
0.234,0.02268775
0.235,0.02279505
0.236,0.0229054
0.237,0.02300963
0.238,0.02310772
0.239,0.02320275
0.24,0.02329165
0.241,0.02337442
0.242,0.02345719
0.243,0.02353689
0.244,0.0236074
0.245,0.02367177
0.246,0.02373615
0.247,0.02379133
0.248,0.02383731
0.249,0.02388636
0.25,0.02392621
0.251,0.02395686
0.252,0.02399365
0.253,0.02401511
0.254,0.02403043
0.255,0.02404883
0.256,0.02405802
0.257,0.02406415
0.258,0.02406722
0.259,0.02405802
0.26,0.02405189
0.261,0.02403657
0.262,0.02401817
0.263,0.02399365
0.264,0.023963
0.265,0.02393541
0.266,0.02389555
0.267,0.0238557
0.268,0.02381892
0.269,0.0237668
0.27,0.02371776
0.271,0.02366564
0.272,0.0235982
0.273,0.02353996
0.274,0.02347558
0.275,0.02339588
0.276,0.02332537
0.277,0.02324567
0.278,0.02315984
0.279,0.02307094
0.28,0.02298204
0.281,0.02288701
0.282,0.02278278
0.283,0.02268469
0.284,0.0225774
0.285,0.02246397
0.286,0.02235362
0.287,0.02223713
0.288,0.02210838
0.289,0.02199189
0.29,0.02186007
0.291,0.02172212
0.292,0.02159338
0.293,0.0214493
0.294,0.02130522
0.295,0.02116421
0.296,0.02101094
0.297,0.02085766
0.298,0.02070745
0.299,0.02054192
0.3,0.02038251
0.301,0.02021698
0.302,0.02005144
0.303,0.01987977
0.304,0.0197081
0.305,0.01953337
0.306,0.01934944
0.307,0.01917778
0.308,0.01899998
0.309,0.01880685
0.31,0.01862292
0.311,0.01843286
0.312,0.01823667
0.313,0.01804661
0.314,0.01784736
0.315,0.01764503
0.316,0.01745497
0.317,0.01724959
0.318,0.01703807
0.319,0.01684188
0.32,0.01663649
0.321,0.01642804
0.322,0.01622265
0.323,0.01601726
0.324,0.01581187
0.325,0.01560649
0.326,0.01540417
0.327,0.01520184
0.328,0.01499646
0.329,0.01480027
0.33,0.01459794
0.331,0.01440175
0.332,0.01421169
0.333,0.01401244
0.334,0.01382544
0.335,0.01364151
0.336,0.01345452
0.337,0.01327672
0.338,0.01309892
0.339,0.01292113
0.34,0.01275252
0.341,0.01258392
0.342,0.01241532
0.343,0.01225592
0.344,0.01209651
0.345,0.01194324
0.346,0.01178996
0.347,0.01164282
0.348,0.01149568
0.349,0.0113516
0.35,0.01121978
0.351,0.01108184
0.352,0.01094695
0.353,0.01082433
0.354,0.01069252
0.355,0.01056683
0.356,0.01045341
0.357,0.01032773
0.358,0.0102143
0.359,0.01010701
0.36,0.009993589
0.361,0.009886298
0.362,0.009785137
0.363,0.009677845
0.364,0.00957975
0.365,0.009484719
0.366,0.009386624
0.367,0.00929466
0.368,0.009202695
0.369,0.009113796
0.37,0.009021832
0.371,0.008942129
0.372,0.008859362
0.373,0.008773527
0.374,0.008693825
0.375,0.008617188
0.376,0.008531354
0.377,0.008460849
0.378,0.008384212
0.379,0.008310639
0.38,0.008243199
0.381,0.008169628
0.382,0.008099122
0.383,0.008034746
0.384,0.007961174
0.385,0.007899866
0.386,0.00783549
0.387,0.007771115
0.388,0.007712871
0.389,0.007648496
0.39,0.007590252
0.391,0.007535073
0.392,0.007473763
0.393,0.00742165
0.394,0.007366471
0.395,0.007311293
0.396,0.00726531
0.397,0.007210132
0.398,0.007161084
0.399,0.007115101
0.4,0.007062989
0.401,0.007017006
0.402,0.006974089
0.403,0.006928107
0.404,0.00688519
0.405,0.006842274
0.406,0.006799357
0.407,0.006759506
0.408,0.006716589
0.409,0.006682869
0.41,0.006649148
0.411,0.006609297
0.412,0.006572511
0.413,0.00653266
0.414,0.00649894
0.415,0.006465219
0.416,0.006425368
0.417,0.006397779
0.418,0.006367124
0.419,0.006330338
0.42,0.006305814
0.421,0.006272094
0.422,0.006241439
0.423,0.006216915
0.424,0.00618626
0.425,0.006155606
0.426,0.006131082
0.427,0.006103492
0.428,0.006078968
0.429,0.006054445
0.43,0.006029921
0.431,0.006008463
0.432,0.005983938
0.433,0.005965546
0.434,0.005941022
0.435,0.005922629
0.436,0.005904236
0.437,0.005882777
0.438,0.00586745
0.439,0.005852123
0.44,0.005830665
0.441,0.005821468
0.442,0.005806141
0.443,0.005790813
0.444,0.005784682
0.445,0.005769355
0.446,0.005760158
0.447,0.005750962
0.448,0.005744831
0.449,0.0057387
0.45,0.005735634
0.451,0.005729503
0.452,0.005732569
0.453,0.005729503
0.454,0.005732569
0.455,0.0057387
0.456,0.005741765
0.457,0.005750962
0.458,0.005760158
0.459,0.005772421
0.46,0.005793879
0.461,0.005809206
0.462,0.005830665
0.463,0.005858254
0.464,0.005882777
0.465,0.005916498
0.466,0.005956349
0.467,0.005993135
0.468,0.006042183
0.469,0.006088165
0.47,0.006143344
0.471,0.006204653
0.472,0.006265963
0.473,0.006339534
0.474,0.006419237
0.475,0.006502005
0.476,0.006590905
0.477,0.006685934
0.478,0.00679016
0.479,0.006903583
0.48,0.007020072
0.481,0.007148822
0.482,0.007283703
0.483,0.007424715
0.484,0.00757799
0.485,0.007731264
0.486,0.007899866
0.487,0.008077663
0.488,0.008255461
0.489,0.008451653
0.49,0.008653974
0.491,0.008859362
0.492,0.009080076
0.493,0.009303857
0.494,0.009536833
0.495,0.00977594
0.496,0.01002118
0.497,0.01027868
0.498,0.01053925
0.499,0.01081207
0.5,0.01109103
0.501,0.01136693
0.502,0.01165815
0.503,0.01195243
0.504,0.01224978
0.505,0.01256246
0.506,0.01287208
0.507,0.01318476
0.508,0.01351583
0.509,0.0138377
0.51,0.01416878
0.511,0.01450904
0.512,0.01485238
0.513,0.01519878
0.514,0.01554824
0.515,0.01589771
0.516,0.01625637
0.517,0.0166181
0.518,0.01698289
0.519,0.01735075
0.52,0.01771861
0.521,0.01809566
0.522,0.01846965
0.523,0.01884977
0.524,0.01923295
0.525,0.01961307
0.526,0.02000546
0.527,0.02039477
0.528,0.02077796
0.529,0.02117954
0.53,0.02157498
0.531,0.02196736
0.532,0.02237508
0.533,0.02277665
0.534,0.02317517
0.535,0.02358594
0.536,0.02399058
0.537,0.02439829
0.538,0.02481213
0.539,0.02522291
0.54,0.02563675
0.541,0.02605365
0.542,0.02647056
0.543,0.02688746
0.544,0.02730437
0.545,0.02773047
0.546,0.02815044
0.547,0.02857042
0.548,0.02899958
0.549,0.02942262
0.55,0.02985179
0.551,0.03105451
0.552,0.03148368
0.553,0.03191284
0.554,0.03234201
0.555,0.03277118
0.556,0.033231
0.557,0.03366017
0.558,0.03408933
0.559,0.0345185
0.56,0.03497833
0.561,0.03540749
0.562,0.03586731
0.563,0.03629648
0.564,0.0367563
0.565,0.03718547
0.566,0.0376453
0.567,0.03810512
0.568,0.03853428
0.569,0.03899411
0.57,0.03945393
0.571,0.0398831
0.572,0.04034292
0.573,0.04080274
0.574,0.04126256
0.575,0.04169173
0.576,0.04215155
0.577,0.04261138
0.578,0.0430712
0.579,0.04353102
0.58,0.04399084
0.581,0.04442001
0.582,0.04487984
0.583,0.04533966
0.584,0.04579948
0.585,0.04628995
0.586,0.04671912
0.587,0.04717895
0.588,0.04763877
0.589,0.04809859
0.59,0.04855841
0.591,0.04904889
0.592,0.04947806
0.593,0.04993788
0.594,0.0503977
0.595,0.05085753
0.596,0.05131735
0.597,0.05180782
0.598,0.05226765
0.599,0.05272747
0.6,0.05318729
0.601,0.05367777
0.602,0.05413759
0.603,0.05459742
0.604,0.05505724
0.605,0.05554771
0.606,0.05600753
0.607,0.05646735
0.608,0.05695784
0.609,0.05741766
0.61,0.05787748
0.611,0.05836796
0.612,0.05882778
0.613,0.0592876
0.614,0.05977808
0.615,0.0602379
0.616,0.06072838
0.617,0.0611882
0.618,0.06167868
0.619,0.0621385
0.62,0.06259833
0.621,0.0630888
0.622,0.06354862
0.623,0.0640391
0.624,0.06449892
0.625,0.0649894
0.626,0.06544922
0.627,0.06590905
0.628,0.06639952
0.629,0.06685934
0.63,0.06734982
0.631,0.0678403
0.632,0.06830012
0.633,0.0687906
0.634,0.06925042
0.635,0.0697409
0.636,0.07023137
0.637,0.0706912
0.638,0.07118168
0.639,0.07167216
0.64,0.07213198
0.641,0.07262245
0.642,0.07308228
0.643,0.07357275
0.644,0.07406323
0.645,0.07452305
0.646,0.07501353
0.647,0.075504
0.648,0.07596382
0.649,0.0764543
0.65,0.07694478
0.651,0.07743526
0.652,0.07792573
0.653,0.07841621
0.654,0.07890669
0.655,0.07936651
0.656,0.07985699
0.657,0.08034747
0.658,0.08083794
0.659,0.08132842
0.66,0.0818189
0.661,0.08227872
0.662,0.0827692
0.663,0.08329033
0.664,0.08375015
0.665,0.08424063
0.666,0.08473111
0.667,0.08519093
0.668,0.08568141
0.669,0.08617189
0.67,0.08666236
0.671,0.08712219
0.672,0.08761266
0.673,0.08807249
0.674,0.08853231
0.675,0.08902278
0.676,0.08951326
0.677,0.08997308
0.678,0.0904329
0.679,0.09092338
0.68,0.0913832
0.681,0.09184303
0.682,0.0923335
0.683,0.09279333
0.684,0.0932838
0.685,0.09374363
0.686,0.09420345
0.687,0.09469392
0.688,0.09515375
0.689,0.09561357
0.69,0.0960734
0.691,0.09656387
0.692,0.09702369
0.693,0.09751417
0.694,0.09800465
0.695,0.09846447
0.696,0.09892429
0.697,0.09941477
0.698,0.09990525
0.699,0.1003957
0.7,0.1005183
0.6990001,0.1000585
0.6980001,0.09956805
0.6970001,0.09913888
0.6960001,0.0986484
0.6950001,0.09818857
0.6940001,0.09772875
0.6930001,0.09726893
0.6920001,0.09680911
0.6910001,0.09634929
0.6900001,0.09588946
0.6890001,0.09542964
0.6880001,0.09496982
0.6870001,0.09451
0.6860001,0.09405018
0.6850001,0.09359035
0.6840001,0.09313053
0.6830001,0.09264006
0.6820001,0.09218023
0.6810001,0.09175106
0.6800001,0.09129124
0.6790001,0.09083142
0.6780001,0.0903716
0.6770001,0.08991177
0.6760001,0.08945195
0.6750001,0.08899213
0.6740001,0.08853231
0.6730001,0.08810314
0.6720001,0.08764332
0.6710001,0.08715284
0.6700001,0.08672367
0.6690001,0.08623319
0.6680001,0.08577337
0.6670001,0.08531355
0.6660001,0.08485373
0.6650001,0.08436324
0.6640001,0.08390342
0.6630001,0.0834436
0.6620001,0.08298378
0.6610001,0.08249331
0.6600001,0.08203348
0.6590001,0.08157366
0.6580001,0.08111384
0.6570001,0.08065402
0.6560001,0.08016354
0.6550001,0.07970371
0.6540001,0.07924389
0.6530001,0.07878407
0.6520001,0.07829359
0.6510001,0.07783377
0.6500001,0.07737394
0.6490001,0.07691412
0.6480001,0.0764543
0.6470001,0.07596382
0.6460001,0.075504
0.6450001,0.07504418
0.6440001,0.07455371
0.6430001,0.07412454
0.6420001,0.07363406
0.6410001,0.07317424
0.6400001,0.07271441
0.6390001,0.07225459
0.6380001,0.07179477
0.6370001,0.07133495
0.6360001,0.07087513
0.6350001,0.0704153
0.6340001,0.06995548
0.6330001,0.06949566
0.6320001,0.06903584
0.6310001,0.06854536
0.6300001,0.06808554
0.6290001,0.06765637
0.6280001,0.06719655
0.6270001,0.06670607
0.6260001,0.06624625
0.6250001,0.06578642
0.6240001,0.06535726
0.6230001,0.06489744
0.6220001,0.06443761
0.6210001,0.06397779
0.6200001,0.06351797
0.6190001,0.06305815
0.6180001,0.06259833
0.6170001,0.0621385
0.6160001,0.06167868
0.6150001,0.06121886
0.6140001,0.06075903
0.6130001,0.06029921
0.6120001,0.05983939
0.6110001,0.05937957
0.6100001,0.05891975
0.6090001,0.05849057
0.6080001,0.05803075
0.6070001,0.05757093
0.6060001,0.05711111
0.6050001,0.05668194
0.6040001,0.05622212
0.6030001,0.0557623
0.6020001,0.05533313
0.6010001,0.05484265
0.6000001,0.05441349
0.5990001,0.05395366
0.5980001,0.05349384
0.5970001,0.05306467
0.5960001,0.05260485
0.5950001,0.05214503
0.5940001,0.05171586
0.5930001,0.05125604
0.5920001,0.05082687
0.5910001,0.05036705
0.5900001,0.04993788
0.5890001,0.04947806
0.5880001,0.04904889
0.5870001,0.04858907
0.5860001,0.0481599
0.5850001,0.04770008
0.5840001,0.04727091
0.5830001,0.04681109
0.5820001,0.04638192
0.5810001,0.04595275
0.5800001,0.04549293
0.5790001,0.04506376
0.5780001,0.0446346
0.5770001,0.04417477
0.5760001,0.0437456
0.5750001,0.04331644
0.5740001,0.04285662
0.5730001,0.04242745
0.5720001,0.04199828
0.5710001,0.04156911
0.5700001,0.04110929
0.5690001,0.04068012
0.5680001,0.04025095
0.5670001,0.03982178
0.5660001,0.03939262
0.5650001,0.03896345
0.5640001,0.03850363
0.5630001,0.03807446
0.5620001,0.0376453
0.5610001,0.03721613
0.5600001,0.03678696
0.5590001,0.03635779
0.5580001,0.03592863
0.5570001,0.03549946
0.5560001,0.03510094
0.5550001,0.03464112
0.5540001,0.03424261
0.5530001,0.03381344
0.5520001,0.03341493
0.5510001,0.03298576
0.5500001,0.03255659
0.5490001,0.03212743
0.5480001,0.03172891
0.5470001,0.03129975
0.5460001,0.03087058
0.5450001,0.03047206
0.5440001,0.0300429
0.5430001,0.02964438
0.5420001,0.02921522
0.5410001,0.0288167
0.5400001,0.02838754
0.5390001,0.02798902
0.5380001,0.02759051
0.5370001,0.02716134
0.5360001,0.02676283
0.5350001,0.02636432
0.5340001,0.0259658
0.5330001,0.02556729
0.5320001,0.02513812
0.5310001,0.02473961
0.5300001,0.02437175
0.5290001,0.02397324
0.5280001,0.02357473
0.5270001,0.02317622
0.5260001,0.0227777
0.5250001,0.02237919
0.5240001,0.02198068
0.5230001,0.02158217
0.5220001,0.02121431
0.5210001,0.0208158
0.5200001,0.02044794
0.5190001,0.02004942
0.5180001,0.01968157
0.5170001,0.01931371
0.5160001,0.0189152
0.5150001,0.01854734
0.5140001,0.01817948
0.5130001,0.01781162
0.5120001,0.01744376
0.5110001,0.01707591
0.5100001,0.01670805
0.5090001,0.01634019
0.5080001,0.01597233
0.5070001,0.01563513
0.5060001,0.01526727
0.5050001,0.01493007
0.5040001,0.01456221
0.5030001,0.01419435
0.5020001,0.01385715
0.5010001,0.01351995
0.5000001,0.01318274
0.4990001,0.01233255
0.4980001,0.01200148
0.4970001,0.01167041
0.4960001,0.01134853
0.4950001,0.01102359
0.4940001,0.01070478
0.4930001,0.0103921
0.4920001,0.01007329
0.4910001,0.009763679
0.4900001,0.009460196
0.4890001,0.009153648
0.4880001,0.008853231
0.4870001,0.008555878
0.4860001,0.008264658
0.4850001,0.007976502
0.4840001,0.007691412
0.4830001,0.007409388
0.4820001,0.007130429
0.4810001,0.006860667
0.4800001,0.006590905
0.4790001,0.006324207
0.4780001,0.006066706
0.4770001,0.005809206
0.4760001,0.005554772
0.4750001,0.005312598
0.4740001,0.005067359
0.4730001,0.004828252
0.4720001,0.00459834
0.4710001,0.00436843
0.4700001,0.004147714
0.4690001,0.003930065
0.4680001,0.003712416
0.4670001,0.003507029
0.4660001,0.003304707
0.4650001,0.003108516
0.4640001,0.002918456
0.4630001,0.002728396
0.4620001,0.002547533
0.4610001,0.002369735
0.4600001,0.002198068
0.4590001,0.002035597
0.4580001,0.001876192
0.4570001,0.001722918
0.4560001,0.001575775
0.4550001,0.001428632
0.4540001,0.001290685
0.4530001,0.001158869
0.4520001,0.0009944543
0.4510001,0.0008761266
0.4500001,0.0007559597
0.4490001,0.0006434565
0.4480001,0.000535858
0.4470001,0.0004291793
0.4460001,0.0003341493
0.4450001,0.0002403455
0.4440001,0.0001468483
0.4430001,6.530646E-05
0.4420001,-2.332715E-05
0.4410001,-0.0001007919
0.4400001,-0.0001698572
0.4390001,-0.0002422026
0.4380001,-0.0003066084
0.4370001,-0.0003678463
0.4360001,-0.0004276232
0.4350001,-0.0004794298
0.4340001,-0.0005333824
0.4330001,-0.0005827366
0.4320001,-0.0006281057
0.4310001,-0.000674088
0.4300001,-0.0007133262
0.4290001,-0.0007540971
0.4280001,-0.0007921091
0.4270001,-0.0008230705
0.4260001,-0.000858017
0.4250001,-0.0008877521
0.4240001,-0.0009138088
0.4230001,-0.0009444635
0.4220001,-0.000969294
0.4210001,-0.0009910589
0.4200001,-0.001016196
0.4190001,-0.001033056
0.4180001,-0.001053595
0.4170001,-0.001073214
0.4160001,-0.001088235
0.4150001,-0.001106321
0.4140001,-0.001120116
0.4130001,-0.001133297
0.4120001,-0.001148931
0.4110001,-0.001159967
0.4100001,-0.001177747
0.4090001,-0.001193381
0.4080001,-0.001197979
0.4070001,-0.001209015
0.4060001,-0.001215146
0.4050001,-0.001223729
0.4040001,-0.001232926
0.4030001,-0.00123875
0.4020001,-0.001248253
0.4010001,-0.001253464
0.4000001,-0.001258676
0.3990001,-0.001268485
0.3980001,-0.001271857
0.3970001,-0.001278601
0.3960001,-0.001287491
0.3950001,-0.001287798
0.3940001,-0.001295155
0.3930001,-0.001301286
0.3920001,-0.001302205
0.3910001,-0.001310789
0.3900001,-0.00131508
0.3890001,-0.001317839
0.3880001,-0.001324277
0.3870001,-0.00132581
0.3860001,-0.001331327
0.3850001,-0.001335313
0.3840001,-0.001337152
0.3830001,-0.00134267
0.3820001,-0.001344509
0.3810001,-0.001348801
0.3800001,-0.001354319
0.3790001,-0.001354319
0.3780001,-0.001361063
0.3770001,-0.001365354
0.3760001,-0.001365048
0.3750001,-0.001372405
0.3740001,-0.001372712
0.3730001,-0.001375777
0.3720001,-0.001382215
0.3710001,-0.001383747
0.3700001,-0.001387732
0.3690001,-0.001391411
0.3680001,-0.001392024
0.3670001,-0.001398155
0.3660001,-0.001399688
0.3650001,-0.001402753
0.3640001,-0.001408578
0.3630001,-0.001408884
0.3620001,-0.001413482
0.3610001,-0.001416855
0.3600001,-0.001418387
0.3590001,-0.001424825
0.3580001,-0.001428197
0.3570001,-0.001430649
0.3560001,-0.001434941
0.3550001,-0.001435554
0.3540001,-0.001440765
0.3530001,-0.001443218
0.3520001,-0.001446283
0.3510001,-0.001452108
0.3500001,-0.001452721
0.3490001,-0.001456706
0.3480001,-0.001462837
0.3470001,-0.001462837
0.3460001,-0.001469887
0.3450001,-0.001475099
0.3440001,-0.001475099
