EXPID. 1321
[电化学]: CV : 0 >> 0.7 >> 0 >> 0(V) @ 0.01(V/s) X 10(Seg)
起始电位 (V),0
上限电位 (V),0.7
下限电位 (V),0
终止电位 (V),0
扫速 (V/s),0.01
电解液 信息:
KOH,1
0.001,-9.113563E-06
0.002,-8.610824E-06
0.003,-8.337995E-06
0.004,-8.013055E-06
0.005,-7.706506E-06
0.006,-7.458202E-06
0.007,-7.206832E-06
0.008,-6.900284E-06
0.009,-6.661176E-06
0.01,-6.351563E-06
0.011,-6.127783E-06
0.012,-5.787515E-06
0.013,-5.621978E-06
0.014,-5.346085E-06
0.015,-5.094715E-06
0.016,-4.867869E-06
0.017,-4.628762E-06
0.018,-4.380458E-06
0.019,-4.147481E-06
0.02,-3.893046E-06
0.021,-3.709117E-06
0.022,-3.519057E-06
0.023,-3.249295E-06
0.024,-3.102152E-06
0.025,-2.915157E-06
0.026,-2.688311E-06
0.027,-2.501317E-06
0.028,-2.314323E-06
0.029,-2.127328E-06
0.03,-1.97712E-06
0.031,-1.750274E-06
0.032,-1.514232E-06
0.033,-1.37935E-06
0.034,-1.173963E-06
0.035,-1.066671E-06
0.036,-8.612838E-07
0.037,-6.804204E-07
0.038,-4.597056E-07
0.039,-2.941696E-07
0.04,-1.623538E-07
0.041,2.770608E-08
0.042,1.840457E-07
0.043,3.342543E-07
0.044,5.365762E-07
0.045,6.959813E-07
0.046,7.971422E-07
0.047,1.048512E-06
0.048,1.143542E-06
0.049,1.284554E-06
0.05,1.480745E-06
0.051,1.615626E-06
0.052,1.817948E-06
0.053,1.998811E-06
0.054,2.124496E-06
0.055,2.290032E-06
0.056,2.443306E-06
0.057,2.575122E-06
0.058,2.768247E-06
0.059,2.88167E-06
0.06,3.044141E-06
0.061,3.255659E-06
0.062,3.353754E-06
0.063,3.45185E-06
0.064,3.669499E-06
0.065,3.785988E-06
0.066,3.920869E-06
0.067,4.083339E-06
0.068,4.270334E-06
0.069,4.417477E-06
0.07,4.497179E-06
0.071,4.674977E-06
0.072,4.794531E-06
0.073,4.969264E-06
0.074,5.143997E-06
0.075,5.214503E-06
0.076,5.413759E-06
0.077,5.545575E-06
0.078,5.628342E-06
0.079,5.839861E-06
0.08,5.968611E-06
0.081,6.072838E-06
0.082,6.287421E-06
0.083,6.394713E-06
0.084,6.615428E-06
0.085,6.710458E-06
0.086,6.860667E-06
0.087,7.075251E-06
0.088,7.173346E-06
0.089,7.384864E-06
0.09,7.535073E-06
0.091,7.648496E-06
0.092,7.789508E-06
0.093,7.951979E-06
0.094,8.068467E-06
0.095,8.240134E-06
0.096,8.335164E-06
0.097,8.448586E-06
0.098,8.56814E-06
0.099,8.745938E-06
0.1,8.810313E-06
0.101,8.90841E-06
0.102,9.101534E-06
0.103,9.196564E-06
0.104,9.340642E-06
0.105,9.469392E-06
0.106,9.601208E-06
0.107,9.696238E-06
0.108,9.870971E-06
0.109,1.008249E-05
0.11,1.011314E-05
0.111,1.030014E-05
0.112,1.042582E-05
0.113,1.054231E-05
0.114,1.072011E-05
0.115,1.085806E-05
0.116,1.103892E-05
0.117,1.114928E-05
0.118,1.127189E-05
0.119,1.144969E-05
0.12,1.155392E-05
0.121,1.170719E-05
0.122,1.183901E-05
0.123,1.193711E-05
0.124,1.218848E-05
0.125,1.229577E-05
0.126,1.245824E-05
0.127,1.260538E-05
0.128,1.274639E-05
0.129,1.296404E-05
0.13,1.313571E-05
0.131,1.326446E-05
0.132,1.350357E-05
0.133,1.356794E-05
0.134,1.376413E-05
0.135,1.392047E-05
0.136,1.407988E-05
0.137,1.419943E-05
0.138,1.43527E-05
0.139,1.447839E-05
0.14,1.464086E-05
0.141,1.482786E-05
0.142,1.492902E-05
0.143,1.51344E-05
0.144,1.525396E-05
0.145,1.538884E-05
0.146,1.552372E-05
0.147,1.564021E-05
0.148,1.58272E-05
0.149,1.602646E-05
0.15,1.610309E-05
0.151,1.630235E-05
0.152,1.643723E-05
0.153,1.654146E-05
0.154,1.674685E-05
0.155,1.689706E-05
0.156,1.702581E-05
0.157,1.722813E-05
0.158,1.740286E-05
0.159,1.750709E-05
0.16,1.766956E-05
0.161,1.779218E-05
0.162,1.794239E-05
0.163,1.812018E-05
0.164,1.822134E-05
0.165,1.838688E-05
0.166,1.858614E-05
0.167,1.877313E-05
0.168,1.892027E-05
0.169,1.908887E-05
0.17,1.926054E-05
0.171,1.935251E-05
0.172,1.966212E-05
0.173,1.976635E-05
0.174,1.98859E-05
0.175,2.010355E-05
0.176,2.028135E-05
0.177,2.038251E-05
0.178,2.060629E-05
0.179,2.073504E-05
0.18,2.09343E-05
0.181,2.112129E-05
0.182,2.128376E-05
0.183,2.145849E-05
0.184,2.159644E-05
0.185,2.179263E-05
0.186,2.199802E-05
0.187,2.21329E-05
0.188,2.229231E-05
0.189,2.248543E-05
0.19,2.260192E-05
0.191,2.289008E-05
0.192,2.296671E-05
0.193,2.319662E-05
0.194,2.341121E-05
0.195,2.352463E-05
0.196,2.365951E-05
0.197,2.384037E-05
0.198,2.3963E-05
0.199,2.418371E-05
0.2,2.43891E-05
0.201,2.447493E-05
0.202,2.471404E-05
0.203,2.526074E-05
0.204,2.547533E-05
0.205,2.568991E-05
0.206,2.584318E-05
0.207,2.608842E-05
0.208,2.642563E-05
0.209,2.654824E-05
0.21,2.676283E-05
0.211,2.69161E-05
0.212,2.710003E-05
0.213,2.728396E-05
0.214,2.746789E-05
0.215,2.762116E-05
0.216,2.78051E-05
0.217,2.808099E-05
0.218,2.829557E-05
0.219,2.857147E-05
0.22,2.884736E-05
0.221,2.90926E-05
0.222,2.927653E-05
0.223,2.949111E-05
0.224,2.967504E-05
0.225,2.988962E-05
0.226,3.016552E-05
0.227,3.031879E-05
0.228,3.056403E-05
0.229,3.077861E-05
0.23,3.096254E-05
0.231,3.129974E-05
0.232,3.145302E-05
0.233,3.163695E-05
0.234,3.188219E-05
0.235,3.209677E-05
0.236,3.240332E-05
0.237,3.264856E-05
0.238,3.289379E-05
0.239,3.326165E-05
0.24,3.347624E-05
0.241,3.375213E-05
0.242,3.405868E-05
0.243,3.430392E-05
0.244,3.461046E-05
0.245,3.482505E-05
0.246,3.503963E-05
0.247,3.534618E-05
0.248,3.562207E-05
0.249,3.589797E-05
0.25,3.611255E-05
0.251,3.638844E-05
0.252,3.67563E-05
0.253,3.700154E-05
0.254,3.727743E-05
0.255,3.76453E-05
0.256,3.795184E-05
0.257,3.822774E-05
0.258,3.862625E-05
0.259,3.890214E-05
0.26,3.923934E-05
0.261,3.957655E-05
0.262,3.985244E-05
0.263,4.02203E-05
0.264,4.049619E-05
0.265,4.089471E-05
0.266,4.123191E-05
0.267,4.15078E-05
0.268,4.190631E-05
0.269,4.221286E-05
0.27,4.255007E-05
0.271,4.291792E-05
0.272,4.325512E-05
0.273,4.359233E-05
0.274,4.399084E-05
0.275,4.429739E-05
0.276,4.46959E-05
0.277,4.49718E-05
0.278,4.527835E-05
0.279,4.56462E-05
0.28,4.601406E-05
0.281,4.641257E-05
0.282,4.674977E-05
0.283,4.708698E-05
0.284,4.75468E-05
0.285,4.794531E-05
0.286,4.831317E-05
0.287,4.8773E-05
0.288,4.917151E-05
0.289,4.953937E-05
0.29,4.996853E-05
0.291,5.036705E-05
0.292,5.079621E-05
0.293,5.125604E-05
0.294,5.165455E-05
0.295,5.208372E-05
0.296,5.257419E-05
0.297,5.29727E-05
0.298,5.337122E-05
0.299,5.380038E-05
0.3,5.432152E-05
0.301,5.475069E-05
0.302,5.51492E-05
0.303,5.551706E-05
0.304,5.594622E-05
0.305,5.634474E-05
0.306,5.683522E-05
0.307,5.729503E-05
0.308,5.778552E-05
0.309,5.827599E-05
0.31,5.86745E-05
0.311,5.919564E-05
0.312,5.96248E-05
0.313,6.011528E-05
0.314,6.069772E-05
0.315,6.115754E-05
0.316,6.170933E-05
0.317,6.21998E-05
0.318,6.265963E-05
0.319,6.318076E-05
0.32,6.373255E-05
0.321,6.422302E-05
0.322,6.477482E-05
0.323,6.526529E-05
0.324,6.578642E-05
0.325,6.624625E-05
0.326,6.679803E-05
0.327,6.728851E-05
0.328,6.777899E-05
0.329,6.830012E-05
0.33,6.875994E-05
0.331,6.921976E-05
0.332,6.98022E-05
0.333,7.035399E-05
0.334,7.090578E-05
0.335,7.142691E-05
0.336,7.204001E-05
0.337,7.259179E-05
0.338,7.314358E-05
0.339,7.369537E-05
0.34,7.436977E-05
0.341,7.486025E-05
0.342,7.541204E-05
0.343,7.599447E-05
0.344,7.660758E-05
0.345,7.719002E-05
0.346,7.780312E-05
0.347,7.829359E-05
0.348,7.890669E-05
0.349,7.948913E-05
0.35,8.013288E-05
0.351,8.071532E-05
0.352,8.132842E-05
0.353,8.191086E-05
0.354,8.246265E-05
0.355,8.31064E-05
0.356,8.37195E-05
0.357,8.427128E-05
0.358,8.482307E-05
0.359,8.546682E-05
0.36,8.611057E-05
0.361,8.669301E-05
0.362,8.733677E-05
0.363,8.791921E-05
0.364,8.859361E-05
0.365,8.917606E-05
0.366,8.988111E-05
0.367,9.046356E-05
0.368,9.110731E-05
0.369,9.178172E-05
0.37,9.248677E-05
0.371,9.306922E-05
0.372,9.380493E-05
0.373,9.444868E-05
0.374,9.506178E-05
0.375,9.582815E-05
0.376,9.644125E-05
0.377,9.711565E-05
0.378,9.791268E-05
0.379,9.852578E-05
0.38,9.926149E-05
0.381,9.990524E-05
0.382,0.000100549
0.383,0.0001012847
0.384,0.0001020204
0.385,0.0001026642
0.386,0.0001033692
0.387,0.0001040436
0.388,0.0001047794
0.389,0.0001054538
0.39,0.0001061588
0.391,0.0001069252
0.392,0.0001076303
0.393,0.0001083047
0.394,0.0001090404
0.395,0.0001097761
0.396,0.0001105731
0.397,0.0001112782
0.398,0.0001119526
0.399,0.0001127189
0.4,0.0001134547
0.401,0.0001141904
0.402,0.0001149261
0.403,0.0001156925
0.404,0.0001164895
0.405,0.0001171946
0.406,0.0001179609
0.407,0.000118758
0.408,0.0001194937
0.409,0.0001202907
0.41,0.0001211184
0.411,0.0001218847
0.412,0.0001226818
0.413,0.0001234481
0.414,0.0001242758
0.415,0.0001249809
0.416,0.0001257779
0.417,0.0001266362
0.418,0.0001274026
0.419,0.0001282303
0.42,0.0001291193
0.421,0.0001298243
0.422,0.0001307133
0.423,0.0001315717
0.424,0.0001323993
0.425,0.0001331964
0.426,0.0001340547
0.427,0.000134913
0.428,0.0001357407
0.429,0.0001366604
0.43,0.0001374881
0.431,0.000138377
0.432,0.0001392047
0.433,0.000140155
0.434,0.000141044
0.435,0.0001418717
0.436,0.0001428526
0.437,0.000143711
0.438,0.000144508
0.439,0.0001455809
0.44,0.0001463779
0.441,0.0001472976
0.442,0.0001484012
0.443,0.0001491982
0.444,0.0001502098
0.445,0.0001511601
0.446,0.0001520491
0.447,0.0001530914
0.448,0.000154103
0.449,0.000154992
0.45,0.0001560036
0.451,0.0001569539
0.452,0.0001580268
0.453,0.0001590384
0.454,0.0001599887
0.455,0.000161031
0.456,0.0001621039
0.457,0.0001631155
0.458,0.0001641271
0.459,0.000165108
0.46,0.0001663342
0.461,0.0001673458
0.462,0.0001683575
0.463,0.0001695223
0.464,0.000170534
0.465,0.0001717295
0.466,0.0001727718
0.467,0.000173906
0.468,0.0001750402
0.469,0.0001761744
0.47,0.0001773393
0.471,0.0001784736
0.472,0.0001796384
0.473,0.0001808646
0.474,0.0001821215
0.475,0.0001831944
0.476,0.0001845432
0.477,0.0001857388
0.478,0.0001869036
0.479,0.0001882218
0.48,0.000189448
0.481,0.0001907355
0.482,0.000192023
0.483,0.0001932798
0.484,0.000194598
0.485,0.0001960081
0.486,0.0001972956
0.487,0.0001987671
0.488,0.0002001465
0.489,0.000201434
0.49,0.0002030281
0.491,0.0002044382
0.492,0.000205971
0.493,0.0002073811
0.494,0.0002089138
0.495,0.0002103239
0.496,0.0002118873
0.497,0.0002133281
0.498,0.0002150448
0.499,0.0002165469
0.5,0.0002182022
0.501,0.0002198576
0.502,0.0002213903
0.503,0.000223199
0.504,0.0002249156
0.505,0.0002266629
0.506,0.0002284716
0.507,0.0002301882
0.508,0.0002321502
0.509,0.0002339281
0.51,0.0002358287
0.511,0.0002377906
0.512,0.0002397832
0.513,0.0002418984
0.514,0.0002439216
0.515,0.0002460368
0.516,0.0002483972
0.517,0.0002503591
0.518,0.0002526276
0.519,0.0002550493
0.52,0.0002572258
0.521,0.0002596169
0.522,0.0002622225
0.523,0.000264583
0.524,0.0002672806
0.525,0.0002699782
0.526,0.0002726452
0.527,0.0002755267
0.528,0.0002782857
0.529,0.0002811672
0.53,0.0002843247
0.531,0.0002873288
0.532,0.0002909155
0.533,0.0002973635
0.534,0.000300429
0.535,0.0003044141
0.536,0.0003077862
0.537,0.0003114647
0.538,0.0003157564
0.539,0.000319435
0.54,0.0003240332
0.541,0.0003283249
0.542,0.0003332296
0.543,0.000338441
0.544,0.0003430392
0.545,0.0003485571
0.546,0.000354688
0.547,0.0003602059
0.548,0.0003672565
0.549,0.0003740006
0.55,0.0003810512
0.551,0.0003890214
0.552,0.0003969917
0.553,0.0004058816
0.554,0.0004156911
0.555,0.0004251941
0.556,0.0004365364
0.557,0.0004484918
0.558,0.0004607537
0.559,0.0004745484
0.56,0.0004892627
0.561,0.0005052032
0.562,0.0005226765
0.563,0.0005413759
0.564,0.0005622212
0.565,0.0005842927
0.566,0.0006082035
0.567,0.0006351797
0.568,0.0006627691
0.569,0.0006943435
0.57,0.0007283704
0.571,0.0007645431
0.572,0.000805314
0.573,0.0008482307
0.574,0.0008951327
0.575,0.0009466327
0.576,0.001002118
0.577,0.001062201
0.578,0.001126883
0.579,0.001196163
0.58,0.0012728
0.581,0.001353422
0.582,0.001440482
0.583,0.001535205
0.584,0.001634527
0.585,0.001741819
0.586,0.001856468
0.587,0.001977555
0.588,0.002107838
0.589,0.002243945
0.59,0.002388636
0.591,0.002542217
0.592,0.002702235
0.593,0.002872676
0.594,0.003049554
0.595,0.00326179
0.596,0.003457981
0.597,0.003654172
0.598,0.00386569
0.599,0.00408334
0.6,0.004304054
0.601,0.004540097
0.602,0.00478227
0.603,0.005024442
0.604,0.005278877
0.605,0.005539444
0.606,0.005803075
0.607,0.006078968
0.608,0.006357928
0.609,0.006639952
0.61,0.006934239
0.611,0.007228524
0.612,0.007528942
0.613,0.00783549
0.614,0.008148169
0.615,0.008463915
0.616,0.008782724
0.617,0.009110731
0.618,0.009438737
0.619,0.009769809
0.62,0.01010701
0.621,0.01044728
0.622,0.01079061
0.623,0.01114008
0.624,0.01148341
0.625,0.01183901
0.626,0.01219461
0.627,0.01255327
0.628,0.01291499
0.629,0.01327672
0.63,0.01364458
0.631,0.01401244
0.632,0.01438029
0.633,0.01475735
0.634,0.01512521
0.635,0.01550226
0.636,0.01588238
0.637,0.0162533
0.638,0.01663342
0.639,0.01701354
0.64,0.01738753
0.641,0.01776765
0.642,0.01815084
0.643,0.01853402
0.644,0.01891721
0.645,0.01929733
0.646,0.01968664
0.647,0.02006983
0.648,0.02045915
0.649,0.0208454
0.65,0.02123165
0.651,0.02163016
0.652,0.02201948
0.653,0.02241186
0.654,0.02281651
0.655,0.02320888
0.656,0.02360433
0.657,0.02401204
0.658,0.02440442
0.659,0.02480294
0.66,0.02521984
0.661,0.02561529
0.662,0.02601687
0.663,0.02643071
0.664,0.02683842
0.665,0.02723693
0.666,0.0276569
0.667,0.02806461
0.668,0.02847232
0.669,0.02888616
0.67,0.02930306
0.671,0.02970771
0.672,0.03012155
0.673,0.03129975
0.674,0.03169826
0.675,0.03212743
0.676,0.03255659
0.677,0.03295511
0.678,0.03338427
0.679,0.03381344
0.68,0.03424261
0.681,0.03464112
0.682,0.03510094
0.683,0.03549946
0.684,0.03592863
0.685,0.03635779
0.686,0.03678696
0.687,0.03721613
0.688,0.0376453
0.689,0.03807446
0.69,0.03850363
0.691,0.03896345
0.692,0.03939262
0.693,0.03979113
0.694,0.04025095
0.695,0.04068012
0.696,0.04107863
0.697,0.04153846
0.698,0.04196763
0.699,0.0423968
0.7,0.04255007
0.6990001,0.04218221
0.6980001,0.0417837
0.6970001,0.04141584
0.6960001,0.04101732
0.6950001,0.04064947
0.6940001,0.04025095
0.6930001,0.0398831
0.6920001,0.03948459
0.6910001,0.03911673
0.6900001,0.03871821
0.6890001,0.03835035
0.6880001,0.03795184
0.6870001,0.03755333
0.6860001,0.03718547
0.6850001,0.03678696
0.6840001,0.0364191
0.6830001,0.03602059
0.6820001,0.03562208
0.6810001,0.03525422
0.6800001,0.0348557
0.6790001,0.03445719
0.6780001,0.03408933
0.6770001,0.03369082
0.6760001,0.03332296
0.6750001,0.03295511
0.6740001,0.03255659
0.6730001,0.03218874
0.6720001,0.03179022
0.6710001,0.03139171
0.6700001,0.03102385
0.6690001,0.03065599
0.6680001,0.03025748
0.6670001,0.02988962
0.6660001,0.02949111
0.6650001,0.02912325
0.6640001,0.02872474
0.6630001,0.02835688
0.6620001,0.02798902
0.6610001,0.02762116
0.6600001,0.02725331
0.6590001,0.0268548
0.6580001,0.02648694
0.6570001,0.02611908
0.6560001,0.02575122
0.6550001,0.02538336
0.6540001,0.02501551
0.6530001,0.02464765
0.6520001,0.02427979
0.6510001,0.02391193
0.6500001,0.02354407
0.6490001,0.02317622
0.6480001,0.02280836
0.6470001,0.0224405
0.6460001,0.0221033
0.6450001,0.02173544
0.6440001,0.02136758
0.6430001,0.02103038
0.6420001,0.02066252
0.6410001,0.02029466
0.6400001,0.01995746
0.6390001,0.0195896
0.6380001,0.0192524
0.6370001,0.0189152
0.6360001,0.01857799
0.6350001,0.01824079
0.6340001,0.01787293
0.6330001,0.01753573
0.6320001,0.01719853
0.6310001,0.01686132
0.6300001,0.01652412
0.6290001,0.01618692
0.6280001,0.01584971
0.6270001,0.01554316
0.6260001,0.01520596
0.6250001,0.01486876
0.6240001,0.01456221
0.6230001,0.01422501
0.6220001,0.01391846
0.6210001,0.01358126
0.6200001,0.01327471
0.6190001,0.0124797
0.6180001,0.01217621
0.6170001,0.01187273
0.6160001,0.01157231
0.6150001,0.01126883
0.6140001,0.01097454
0.6130001,0.01068332
0.6120001,0.0103921
0.6110001,0.01010701
0.6100001,0.009821923
0.6090001,0.009539898
0.6080001,0.009264005
0.6070001,0.008988111
0.6060001,0.008721415
0.6050001,0.008451653
0.6040001,0.00818802
0.6030001,0.00793052
0.6020001,0.007669954
0.6010001,0.007415519
0.6000001,0.007167215
0.5990001,0.00691891
0.5980001,0.006679803
0.5970001,0.006440695
0.5960001,0.006207719
0.5950001,0.005974742
0.5940001,0.005747896
0.5930001,0.005527182
0.5920001,0.005309533
0.5910001,0.005098014
0.5900001,0.004892627
0.5890001,0.004690305
0.5880001,0.004487983
0.5870001,0.004294858
0.5860001,0.004104798
0.5850001,0.003920869
0.5840001,0.003740005
0.5830001,0.003565273
0.5820001,0.003396671
0.5810001,0.003231135
0.5800001,0.00307173
0.5790001,0.002915391
0.5780001,0.002765182
0.5770001,0.002621104
0.5760001,0.002483158
0.5750001,0.002348276
0.5740001,0.002216461
0.5730001,0.002093841
0.5720001,0.001974287
0.5710001,0.001860865
0.5700001,0.001753573
0.5690001,0.001646281
0.5680001,0.001548185
0.5670001,0.001453156
0.5660001,0.001361191
0.5650001,0.001275357
0.5640001,0.001163362
0.5630001,0.001086725
0.5620001,0.001014073
0.5610001,0.0009444869
0.5600001,0.0008801118
0.5590001,0.0008184955
0.5580001,0.000761171
0.5570001,0.000706912
0.5560001,0.000656025
0.5550001,0.0006088165
0.5540001,0.000564367
0.5530001,0.000522983
0.5520001,0.0004852776
0.5510001,0.0004484918
0.5500001,0.000415078
0.5490001,0.0003844232
0.5480001,0.0003549946
0.5470001,0.000328938
0.5460001,0.0003041076
0.5450001,0.0002808099
0.5440001,0.0002605777
0.5430001,0.0002406521
0.5420001,0.0002222592
0.5410001,0.0002060121
0.5400001,0.0001906847
0.5390001,0.00017689
0.5380001,0.0001643216
0.5370001,0.0001520596
0.5360001,0.000141637
0.5350001,0.0001315209
0.5340001,0.0001223244
0.5330001,0.0001105731
0.5320001,0.0001030014
0.5310001,9.625732E-05
0.5300001,8.985046E-05
0.5290001,8.381146E-05
0.5280001,7.893734E-05
0.5270001,7.38793E-05
0.5260001,6.949566E-05
0.5250001,6.557184E-05
0.5240001,6.164802E-05
0.5230001,5.845992E-05
0.5220001,5.560902E-05
0.5210001,5.266616E-05
0.5200001,5.042835E-05
0.5190001,4.800662E-05
0.5180001,4.589144E-05
0.5170001,4.420543E-05
0.5160001,4.239679E-05
0.5150001,4.083339E-05
0.5140001,3.96072E-05
0.5130001,3.825839E-05
0.5120001,3.687892E-05
0.5110001,3.595928E-05
0.5100001,3.503963E-05
0.5090001,3.433457E-05
0.5080001,3.350689E-05
0.5070001,3.286314E-05
0.5060001,3.215808E-05
0.5050001,3.163695E-05
0.5040001,3.129974E-05
0.5030001,3.053337E-05
0.5020001,3.025748E-05
0.5010001,2.992028E-05
0.5000001,2.927653E-05
0.4990001,2.912325E-05
0.4980001,2.887801E-05
0.4970001,2.84795E-05
0.4960001,2.841819E-05
0.4950001,2.801968E-05
0.4940001,2.78051E-05
0.4930001,2.762116E-05
0.4920001,2.737593E-05
0.4910001,2.734527E-05
0.4900001,2.713069E-05
0.4890001,2.688545E-05
0.4880001,2.685479E-05
0.4870001,2.660956E-05
0.4860001,2.651759E-05
0.4850001,2.660956E-05
0.4840001,2.636432E-05
0.4830001,2.621104E-05
0.4820001,2.62417E-05
0.4810001,2.605777E-05
0.4800001,2.602712E-05
0.4790001,2.590449E-05
0.4780001,2.575122E-05
0.4770001,2.572057E-05
0.4760001,2.568991E-05
0.4750001,2.556729E-05
0.4740001,2.547533E-05
0.4730001,2.541402E-05
0.4720001,2.535271E-05
0.4710001,2.516878E-05
0.4700001,2.504616E-05
0.4690001,2.49542E-05
0.4680001,2.473961E-05
0.4670001,2.464765E-05
0.4660001,2.449437E-05
0.4650001,2.424914E-05
0.4640001,2.421848E-05
0.4630001,2.403455E-05
0.4620001,2.381997E-05
0.4610001,2.369735E-05
0.4600001,2.342145E-05
0.4590001,2.320687E-05
0.4580001,2.308425E-05
0.4570001,2.290032E-05
0.4560001,2.271639E-05
0.4550001,2.250181E-05
0.4540001,2.225657E-05
0.4530001,2.204199E-05
0.4520001,2.176609E-05
0.4510001,2.158217E-05
0.4500001,2.133693E-05
0.4490001,2.109169E-05
0.4480001,2.084645E-05
0.4470001,2.060121E-05
0.4460001,2.032532E-05
0.4450001,2.001877E-05
0.4440001,1.974287E-05
0.4430001,1.949764E-05
0.4420001,1.919109E-05
0.4410001,1.885389E-05
0.4400001,1.86393E-05
0.4390001,1.836341E-05
0.4380001,1.80262E-05
0.4370001,1.778097E-05
0.4360001,1.738245E-05
0.4350001,1.710656E-05
0.4340001,1.683067E-05
0.4330001,1.646281E-05
0.4320001,1.621757E-05
0.4310001,1.581906E-05
0.4300001,1.548186E-05
0.4290001,1.517531E-05
0.4280001,1.48381E-05
0.4270001,1.45009E-05
0.4260001,1.419435E-05
0.4250001,1.376518E-05
0.4240001,1.348929E-05
0.4230001,1.309078E-05
0.4220001,1.269227E-05
0.4210001,1.238572E-05
0.4200001,1.195655E-05
0.4190001,1.161935E-05
0.4180001,1.092243E-05
0.4170001,1.056377E-05
0.4160001,1.02143E-05
0.4150001,9.733024E-06
0.4140001,9.405017E-06
0.4130001,9.046355E-06
0.4120001,8.641712E-06
0.4110001,8.21561E-06
0.4100001,7.789508E-06
0.4090001,7.48296E-06
0.4080001,7.121233E-06
0.4070001,6.707393E-06
0.4060001,6.296618E-06
0.4050001,5.959414E-06
0.4040001,5.573164E-06
0.4030001,5.091883E-06
0.4020001,4.760811E-06
0.4010001,4.362299E-06
0.4000001,3.99444E-06
0.3990001,3.516225E-06
0.3980001,3.114647E-06
0.3970001,2.676283E-06
0.3960001,2.27777E-06
0.3950001,1.89152E-06
0.3940001,1.480745E-06
0.3930001,1.060774E-06
0.3920001,6.591955E-07
0.3910001,1.717838E-07
0.3900001,-2.175325E-07
