EXPID. 1179
[电化学]: i-t : @ 0(V) X 600(sec)
起始电位 (V),0
静置时间 (秒),0
运行时间 (秒),600
记录间隔,0.1
电解液 信息:
HNO3,0.4
0.1,-0.001537449
0.2,-0.001352355
0.3,-0.001219546
0.4,-0.001119612
0.5,-0.001040985
0.6,-0.0009772665
0.7,-0.0009249024
0.8000001,-0.0008804621
0.9000001,-0.0008419849
1,-0.0008086588
1.1,-0.0007791685
1.2,-0.0007528453
1.3,-0.0007293905
1.4,-0.0007078267
1.5,-0.0006883913
1.6,-0.0006704306
1.7,-0.0006542385
1.8,-0.0006392131
1.9,-0.0006252199
2,-0.0006121083
2.1,-0.0006001086
2.2,-0.0005887505
2.3,-0.0005780967
2.4,-0.0005681115
2.5,-0.0005587017
2.6,-0.0005497251
2.7,-0.0005413108
2.799999,-0.0005334162
2.899999,-0.0005257308
2.999999,-0.0005185312
3.099999,-0.000511666
3.199999,-0.0005049354
3.299999,-0.0004987831
3.399999,-0.0004927457
3.499999,-0.0004869088
3.599999,-0.0004813441
3.699999,-0.0004760798
3.799999,-0.0004709512
3.899998,-0.0004659562
3.999998,-0.0004613587
4.099998,-0.0004566792
4.199998,-0.0004522964
4.299998,-0.0004481236
4.399998,-0.0004440186
4.499998,-0.0004401792
4.599998,-0.0004361683
4.699998,-0.0004324598
4.799998,-0.00042903
4.899998,-0.0004253488
4.999998,-0.0004219256
5.099998,-0.0004186766
5.199997,-0.000415357
5.299997,-0.0004122304
5.399997,-0.0004092018
5.499997,-0.0004061582
5.599997,-0.0004032087
5.699997,-0.0004003769
5.799997,-0.0003975234
5.899997,-0.0003948564
5.999997,-0.0003923157
6.099997,-0.0003897334
6.199996,-0.0003872633
6.299996,-0.0003848939
6.399996,-0.0003824991
6.499996,-0.0003801588
6.599996,-0.0003778808
6.699996,-0.0003756734
6.799996,-0.0003735196
6.899996,-0.0003713414
6.999996,-0.000369248
7.099996,-0.0003671912
7.199996,-0.000365174
7.299995,-0.0003631276
7.399995,-0.0003611783
7.499995,-0.0003593108
7.599995,-0.0003574782
7.699995,-0.0003556889
7.799995,-0.0003539043
7.899995,-0.0003521857
7.999995,-0.0003504387
8.099995,-0.0003487502
8.199995,-0.0003471483
8.299995,-0.000345554
8.399996,-0.0003438956
8.499996,-0.0003422579
8.599997,-0.0003406796
8.699997,-0.000339121
8.799997,-0.0003376369
8.899998,-0.0003361734
8.999998,-0.0003347015
9.099998,-0.0003333256
9.199999,-0.0003319836
9.299999,-0.0003305899
9.4,-0.0003291905
9.5,-0.0003277505
9.6,-0.0003264199
9.700001,-0.0003252832
9.800001,-0.0003238226
9.900002,-0.0003226935
10,-0.0003213797
10.1,-0.000320034
10.2,-0.0003188738
10.3,-0.000317739
10.4,-0.0003164385
10.5,-0.0003152698
10.6,-0.0003141604
10.7,-0.0003128957
10.8,-0.0003118475
10.90001,-0.0003107504
11.00001,-0.0003095582
11.10001,-0.0003085072
11.20001,-0.0003074355
11.30001,-0.0003064872
11.40001,-0.0003055417
11.50001,-0.0003044691
11.60001,-0.0003033861
11.70001,-0.000302354
11.80001,-0.0003013529
11.90001,-0.0003003537
12.00001,-0.000299428
12.10001,-0.0002984618
12.20001,-0.0002973712
12.30001,-0.000296454
12.40001,-0.0002956206
12.50001,-0.0002946788
12.60001,-0.0002937823
12.70001,-0.0002928933
12.80001,-0.0002920194
12.90001,-0.00029112
13.00001,-0.0002902471
13.10001,-0.000289408
13.20001,-0.0002885736
13.30001,-0.0002877401
13.40001,-0.0002868559
13.50002,-0.0002860337
13.60002,-0.0002852267
13.70002,-0.0002844337
13.80002,-0.0002836615
13.90002,-0.0002828893
14.00002,-0.0002821161
14.10002,-0.0002813345
14.20002,-0.0002805548
14.30002,-0.0002797223
14.40002,-0.0002789896
14.50002,-0.0002782955
14.60002,-0.0002775403
14.70002,-0.0002768594
14.80002,-0.0002761804
14.90002,-0.000275379
15.00002,-0.0002745785
15.10002,-0.0002738741
15.20002,-0.000273213
15.30002,-0.0002725236
15.40002,-0.0002718419
15.50002,-0.0002711412
15.60002,-0.0002704424
15.70002,-0.0002697446
15.80002,-0.0002691514
15.90002,-0.0002684337
16.00002,-0.0002677745
16.10003,-0.0002672047
16.20003,-0.0002664806
16.30003,-0.0002658901
16.40003,-0.0002652526
16.50003,-0.0002646018
16.60003,-0.000264065
16.70003,-0.0002634792
16.80003,-0.0002628173
16.90003,-0.0002621816
17.00003,-0.0002616193
17.10003,-0.0002609178
17.20003,-0.000260381
17.30003,-0.0002598263
17.40003,-0.0002590993
17.50003,-0.0002585964
17.60003,-0.0002580351
17.70003,-0.0002574211
17.80003,-0.0002569022
17.90003,-0.0002562939
18.00003,-0.0002556686
18.10003,-0.0002551873
18.20003,-0.0002546496
18.30003,-0.0002539725
18.40003,-0.0002535026
18.50003,-0.0002529658
18.60003,-0.0002523734
18.70004,-0.00025196
18.80004,-0.0002513771
18.90004,-0.0002508836
19.00004,-0.00025036
19.10004,-0.0002498581
19.20004,-0.000249278
19.30004,-0.0002488015
19.40004,-0.0002482854
19.50004,-0.0002477542
19.60004,-0.0002472693
19.70004,-0.0002467155
19.80004,-0.0002461533
19.90004,-0.0002456919
20.00004,-0.000245173
20.10004,-0.0002446814
20.20004,-0.0002442501
20.30004,-0.0002437773
20.40004,-0.0002433498
20.50004,-0.0002428205
20.60004,-0.0002423609
20.70004,-0.0002418929
20.80004,-0.0002414446
20.90004,-0.0002409069
21.00004,-0.0002404295
21.10004,-0.0002399642
21.20004,-0.0002394953
21.30005,-0.0002390442
21.40005,-0.0002385893
21.50005,-0.0002381495
21.60005,-0.0002377248
21.70005,-0.000237221
21.80005,-0.0002368198
21.90005,-0.0002364243
22.00005,-0.0002359882
22.10005,-0.0002355475
22.20005,-0.0002350983
22.30005,-0.0002346859
22.40005,-0.0002342781
22.50005,-0.0002339324
22.60005,-0.0002334719
22.70005,-0.0002330519
22.80005,-0.0002326131
22.90005,-0.0002321592
23.00005,-0.000231791
23.10005,-0.000231354
23.20005,-0.0002309378
23.30005,-0.0002306421
23.40005,-0.0002301382
23.50005,-0.0002297681
23.60005,-0.0002293801
23.70005,-0.0002289837
23.80005,-0.0002285674
23.90005,-0.0002283
24.00006,-0.0002278941
24.10006,-0.0002274759
24.20006,-0.0002271652
24.30006,-0.000226812
24.40006,-0.0002264033
24.50006,-0.0002260963
24.60006,-0.0002256885
24.70006,-0.0002253128
24.80006,-0.000225003
24.90006,-0.0002246611
25.00006,-0.0002243419
25.10006,-0.0002239548
25.20006,-0.0002235216
25.30006,-0.000223193
25.40006,-0.000222804
25.50006,-0.0002224707
25.60006,-0.0002221457
25.70006,-0.0002217342
25.80006,-0.0002214046
25.90006,-0.0002210402
26.00006,-0.0002206672
26.10006,-0.0002203094
26.20006,-0.0002199148
26.30006,-0.0002195607
26.40006,-0.0002192245
26.50006,-0.0002189071
26.60007,-0.0002185351
26.70007,-0.0002181914
26.80007,-0.0002179014
26.90007,-0.0002175454
27.00007,-0.0002172224
27.10007,-0.0002168899
27.20007,-0.0002165321
27.30007,-0.0002162138
27.40007,-0.000215903
27.50007,-0.0002155828
27.60007,-0.0002152655
27.70007,-0.0002149085
27.80007,-0.0002146175
27.90007,-0.0002143887
28.00007,-0.0002141373
28.10007,-0.0002136673
28.20007,-0.0002133726
28.30007,-0.000213074
28.40007,-0.0002127096
28.50007,-0.0002124271
28.60007,-0.000212154
28.70007,-0.0002117839
28.80007,-0.0002114957
28.90007,-0.0002112226
29.00007,-0.0002108977
29.10007,-0.0002106284
29.20008,-0.0002103035
29.30008,-0.0002100096
29.40008,-0.0002097375
29.50008,-0.0002093608
29.60008,-0.0002090086
29.70008,-0.0002087261
29.80008,-0.0002085019
29.90008,-0.0002082044
30.00008,-0.0002079181
30.10008,-0.0002076026
30.20008,-0.0002072852
30.30008,-0.000207014
30.40008,-0.0002067305
30.50008,-0.00020648
30.60008,-0.000206189
30.70008,-0.0002059414
30.80008,-0.0002056099
30.90008,-0.000205334
31.00008,-0.0002050637
31.10008,-0.0002048009
31.20008,-0.0002045787
31.30008,-0.0002042802
31.40008,-0.0002040212
31.50008,-0.0002037575
31.60008,-0.0002034769
31.70008,-0.0002031604
31.80009,-0.0002028874
31.90009,-0.0002026265
32.00008,-0.0002023157
32.10008,-0.0002020718
32.20008,-0.0002017638
32.30008,-0.0002015199
32.40008,-0.0002012798
32.50008,-0.0002010679
32.60007,-0.0002008033
32.70007,-0.0002005283
32.80007,-0.0002002995
32.90007,-0.0002000734
33.00007,-0.0001997438
33.10007,-0.0001994707
33.20007,-0.0001992193
33.30006,-0.0001989961
33.40006,-0.0001986891
33.50006,-0.0001984734
33.60006,-0.0001982163
33.70006,-0.0001979847
33.80006,-0.0001976871
33.90005,-0.0001974479
34.00005,-0.0001972162
34.10005,-0.0001970957
34.20005,-0.0001967105
34.30005,-0.0001964167
34.40005,-0.0001962397
34.50005,-0.0001959854
34.60004,-0.0001957415
34.70004,-0.000195459
34.80004,-0.0001951915
34.90004,-0.0001949853
35.00004,-0.0001946943
35.10004,-0.0001944447
35.20004,-0.0001942196
35.30003,-0.0001940388
35.40003,-0.0001937205
35.50003,-0.0001935642
35.60003,-0.0001932836
35.70003,-0.0001929709
35.80003,-0.0001927939
35.90002,-0.0001926168
36.00002,-0.000192323
36.10002,-0.0001921431
36.20002,-0.0001919312
36.30002,-0.0001917316
36.40002,-0.0001915649
36.50002,-0.0001913276
36.60001,-0.0001910432
36.70001,-0.0001908727
36.80001,-0.0001906006
36.90001,-0.0001903256
37.00001,-0.0001901466
37.10001,-0.0001898773
37.2,-0.0001896466
37.3,-0.0001893838
37.4,-0.0001891738
37.5,-0.0001889601
37.6,-0.0001888
37.7,-0.0001885485
37.8,-0.0001883489
37.89999,-0.0001881106
37.99999,-0.0001878733
38.09999,-0.0001876709
38.19999,-0.0001875013
38.29999,-0.0001872753
38.39999,-0.0001870493
38.49998,-0.0001868393
38.59998,-0.0001866886
38.69998,-0.00018644
38.79998,-0.0001863006
38.89998,-0.0001860831
38.99998,-0.0001857761
39.09998,-0.0001855294
39.19997,-0.000185308
39.29997,-0.0001851103
39.39997,-0.0001849473
39.49997,-0.0001847072
39.59997,-0.0001845085
39.69997,-0.0001843154
39.79996,-0.0001841026
39.89996,-0.0001838785
39.99996,-0.0001836534
40.09996,-0.0001834133
40.19996,-0.00018332
40.29996,-0.0001830677
40.39996,-0.0001828624
40.49995,-0.0001826476
40.59995,-0.0001825158
40.69995,-0.0001822597
40.79995,-0.0001820638
40.89995,-0.0001818632
40.99995,-0.0001816438
41.09995,-0.0001814093
41.19994,-0.0001813245
41.29994,-0.0001811173
41.39994,-0.0001808621
41.49994,-0.00018059
41.59994,-0.0001804496
41.69994,-0.0001802575
41.79993,-0.0001800089
41.89993,-0.0001798705
41.99993,-0.0001796388
42.09993,-0.0001794505
42.19993,-0.0001792913
42.29993,-0.0001790747
42.39993,-0.0001789363
42.49992,-0.0001787319
42.59992,-0.0001785587
42.69992,-0.0001782987
42.79992,-0.0001781236
42.89992,-0.0001779654
42.99992,-0.0001777422
43.09991,-0.0001775632
43.19991,-0.0001773495
43.29991,-0.0001771856
43.39991,-0.0001770566
43.49991,-0.0001768447
43.59991,-0.0001766507
43.69991,-0.0001764991
43.7999,-0.0001763032
43.8999,-0.0001761167
43.9999,-0.000175984
44.0999,-0.000175724
44.1999,-0.0001755602
44.2999,-0.0001753944
44.39989,-0.0001752249
44.49989,-0.000175095
44.59989,-0.0001748793
44.69989,-0.0001746156
44.79989,-0.0001744828
44.89989,-0.0001743604
44.99989,-0.0001741495
45.09988,-0.0001739508
45.19988,-0.0001737634
45.29988,-0.0001736014
45.39988,-0.0001734639
45.49988,-0.0001733085
45.59988,-0.000173138
45.69987,-0.0001729488
45.79987,-0.0001727849
45.89987,-0.0001726003
45.99987,-0.0001724167
46.09987,-0.0001722556
46.19987,-0.0001721031
46.29987,-0.0001719468
46.39986,-0.0001717537
46.49986,-0.0001716671
46.59986,-0.0001714712
46.69986,-0.0001712762
46.79986,-0.000171118
46.89986,-0.0001709099
46.99986,-0.0001707027
47.09985,-0.0001705907
47.19985,-0.0001704183
47.29985,-0.0001702102
47.39985,-0.0001701094
47.49985,-0.0001699635
47.59985,-0.0001697422
47.69984,-0.0001696056
47.79984,-0.0001694531
47.89984,-0.0001692365
47.99984,-0.0001691329
48.09984,-0.0001689483
48.19984,-0.0001688014
48.29984,-0.0001686582
48.39983,-0.0001684859
48.49983,-0.0001682787
48.59983,-0.0001681723
48.69983,-0.000168048
48.79983,-0.0001678644
48.89983,-0.0001677174
48.99982,-0.0001675517
49.09982,-0.0001673662
49.19982,-0.000167256
49.29982,-0.0001670498
49.39982,-0.0001668435
49.49982,-0.0001666684
49.59982,-0.0001665101
49.69981,-0.0001663227
49.79981,-0.0001661918
49.89981,-0.0001660346
49.99981,-0.0001658038
50.09981,-0.0001656937
50.19981,-0.0001655919
50.2998,-0.0001654121
50.3998,-0.0001652435
50.4998,-0.0001650768
50.5998,-0.0001649374
50.6998,-0.0001648018
50.7998,-0.000164654
50.8998,-0.0001644496
50.99979,-0.0001643263
51.09979,-0.0001642057
51.19979,-0.0001640682
51.29979,-0.0001638723
51.39979,-0.000163701
51.49979,-0.0001636115
51.59978,-0.000163554
51.69978,-0.0001632856
51.79978,-0.0001631444
51.89978,-0.0001629711
51.99978,-0.0001628647
52.09978,-0.0001626952
52.19978,-0.0001625586
52.29977,-0.0001623788
52.39977,-0.0001622394
52.49977,-0.0001621179
52.59977,-0.0001619277
52.69977,-0.00016189
52.79977,-0.0001617676
52.89977,-0.000161567
52.99976,-0.0001614436
53.09976,-0.0001612666
53.19976,-0.0001611357
53.29976,-0.0001609878
53.39976,-0.000160807
53.49976,-0.0001606883
53.59975,-0.0001605914
53.69975,-0.0001604303
53.79975,-0.0001602542
53.89975,-0.0001601713
53.99975,-0.000159983
54.09975,-0.0001598455
54.19975,-0.0001597221
54.29974,-0.000159514
54.39974,-0.0001594415
54.49974,-0.0001593125
54.59974,-0.0001591034
54.69974,-0.0001590074
54.79974,-0.0001588058
54.89973,-0.0001586486
54.99973,-0.0001585469
55.09973,-0.0001584131
55.19973,-0.0001582304
55.29973,-0.0001581561
55.39973,-0.0001580167
55.49973,-0.0001578057
55.59972,-0.0001577859
55.69972,-0.0001576372
55.79972,-0.0001574366
55.89972,-0.0001573622
55.99972,-0.0001572162
56.09972,-0.0001571117
56.19971,-0.0001569798
56.29971,-0.0001568536
56.39971,-0.0001567133
56.49971,-0.0001565918
56.59971,-0.0001564449
56.69971,-0.0001562895
56.79971,-0.0001561709
56.8997,-0.0001560315
56.9997,-0.000155845
57.0997,-0.0001557866
57.1997,-0.0001556218
57.2997,-0.0001554373
57.3997,-0.0001553553
57.49969,-0.0001552329
57.59969,-0.0001550935
57.69969,-0.0001550022
57.79969,-0.0001548703
57.89969,-0.0001547328
57.99969,-0.0001546735
58.09969,-0.0001544776
58.19968,-0.000154326
58.29968,-0.0001542158
58.39968,-0.0001541028
58.49968,-0.0001539098
58.59968,-0.0001538307
58.69968,-0.0001536753
58.79967,-0.0001535387
58.89967,-0.000153453
58.99967,-0.000153341
59.09967,-0.0001531903
59.19967,-0.0001530971
59.29967,-0.0001529671
59.39967,-0.0001528061
59.49966,-0.0001526431
59.59966,-0.0001525301
59.69966,-0.0001523804
59.79966,-0.0001522956
59.89966,-0.0001522118
59.99966,-0.000152048
60.09966,-0.0001519736
60.19965,-0.0001518069
60.29965,-0.0001516732
60.39965,-0.000151563
60.49965,-0.0001514019
60.59965,-0.0001512852
60.69965,-0.0001511599
60.79964,-0.0001510497
60.89964,-0.0001508878
60.99964,-0.0001507616
61.09964,-0.0001506203
61.19964,-0.0001504913
61.29964,-0.0001503481
61.39964,-0.0001502568
61.49963,-0.0001501758
61.59963,-0.0001500355
61.69963,-0.0001498905
61.79963,-0.0001497775
61.89963,-0.0001496692
61.99963,-0.000149575
62.09962,-0.0001494742
62.19962,-0.0001493292
62.29962,-0.000149203
62.39962,-0.0001490787
62.49962,-0.0001489921
62.59962,-0.0001488611
62.69962,-0.000148751
62.79961,-0.0001486153
62.89961,-0.0001485184
62.99961,-0.0001483969
63.09961,-0.0001482547
63.19961,-0.0001481549
63.29961,-0.0001480296
63.3996,-0.0001479156
63.4996,-0.0001478092
63.5996,-0.0001477038
63.6996,-0.000147571
63.7996,-0.0001475531
63.8996,-0.0001473892
63.9996,-0.000147215
64.09959,-0.000147182
64.19959,-0.0001471095
64.29959,-0.0001469654
64.39959,-0.0001468694
64.49959,-0.0001467272
64.59959,-0.0001465539
64.69958,-0.0001464861
64.79958,-0.0001463731
64.89958,-0.0001462412
64.99958,-0.0001461697
65.09958,-0.0001460793
65.19958,-0.0001458994
65.29958,-0.0001458552
65.39957,-0.0001456979
65.49957,-0.0001455604
65.59957,-0.0001454803
65.69957,-0.0001453777
65.79957,-0.0001452289
65.89957,-0.0001451554
65.99957,-0.0001450198
66.09956,-0.0001449115
66.19956,-0.0001448437
66.29956,-0.0001447693
66.39956,-0.0001446733
66.49956,-0.0001445141
66.59956,-0.000144371
66.69955,-0.0001442589
66.79955,-0.0001442099
66.89955,-0.0001441233
66.99955,-0.0001439981
67.09955,-0.0001438813
67.19955,-0.0001437457
67.29955,-0.00014366
67.39954,-0.0001436298
67.49954,-0.0001434829
67.59954,-0.000143401
67.69954,-0.0001432682
67.79954,-0.0001431204
67.89954,-0.0001430299
67.99953,-0.000142932
68.09953,-0.0001428049
68.19953,-0.0001427117
68.29953,-0.0001425996
68.39953,-0.0001425243
68.49953,-0.0001424009
68.59953,-0.0001422455
68.69952,-0.0001422012
68.79952,-0.0001420986
68.89952,-0.0001419988
68.99952,-0.0001419488
69.09952,-0.0001418245
69.19952,-0.00014164
69.29951,-0.0001415797
69.39951,-0.0001415241
69.49951,-0.0001414394
69.59951,-0.0001414187
69.69951,-0.0001412698
69.79951,-0.0001411493
69.89951,-0.0001411568
69.9995,-0.0001410438
70.0995,-0.0001408969
70.1995,-0.0001408263
70.2995,-0.0001407189
70.3995,-0.0001405645
70.4995,-0.0001404826
70.59949,-0.0001404091
70.69949,-0.0001402716
70.79949,-0.000140184
70.89949,-0.0001401379
70.99949,-0.00013999
71.09949,-0.0001399637
71.19949,-0.0001398591
71.29948,-0.0001397207
71.39948,-0.000139587
71.49948,-0.0001395333
71.59948,-0.0001394561
71.69948,-0.0001394561
71.79948,-0.0001392894
71.89948,-0.0001391689
71.99947,-0.0001390511
72.09947,-0.0001390756
72.19947,-0.0001389193
72.29947,-0.0001387422
72.39947,-0.0001387225
72.49947,-0.0001386113
72.59946,-0.0001384833
72.69946,-0.0001384626
72.79946,-0.0001383147
72.89946,-0.0001382817
72.99946,-0.0001384183
73.09946,-0.0001381885
73.19946,-0.0001379653
73.29945,-0.0001378872
73.39945,-0.0001378495
73.49945,-0.0001376837
73.59945,-0.0001376715
73.69945,-0.0001375029
73.79945,-0.0001374078
73.89944,-0.0001373457
73.99944,-0.0001373014
74.09944,-0.0001371649
74.19944,-0.000137114
74.29944,-0.0001369812
74.39944,-0.0001368418
74.49944,-0.0001368079
74.59943,-0.0001367156
74.69943,-0.0001365951
74.79943,-0.000136468
74.89943,-0.0001363239
74.99943,-0.0001362391
75.09943,-0.0001361939
75.19942,-0.0001360762
75.29942,-0.0001359745
75.39942,-0.0001358615
75.49942,-0.0001357353
75.59942,-0.0001356562
75.69942,-0.0001355884
75.79942,-0.0001354415
75.89941,-0.0001354613
75.99941,-0.0001354038
76.09941,-0.000135223
76.19941,-0.0001350874
76.29941,-0.0001349527
76.39941,-0.0001348651
76.4994,-0.0001347832
76.5994,-0.0001347267
76.6994,-0.000134608
76.7994,-0.0001344884
76.8994,-0.0001344432
76.9994,-0.0001343218
77.0994,-0.000134204
77.19939,-0.0001341702
77.29939,-0.0001340656
77.39939,-0.0001340138
77.49939,-0.0001339244
77.59939,-0.0001337972
77.69939,-0.000133688
77.79939,-0.0001336352
77.89938,-0.0001334987
77.99938,-0.0001334102
78.09938,-0.0001333461
78.19938,-0.0001332407
78.29938,-0.0001331192
78.39938,-0.000133074
78.49937,-0.0001329789
78.59937,-0.0001328319
78.69937,-0.0001328169
78.79937,-0.0001327538
78.89937,-0.0001326596
78.99937,-0.0001325193
79.09937,-0.0001324195
79.19936,-0.0001323112
79.29936,-0.0001322471
79.39936,-0.0001321266
79.49936,-0.0001319985
79.59936,-0.000131926
79.69936,-0.0001318516
79.79935,-0.0001317508
79.89935,-0.0001316369
79.99935,-0.0001315644
80.09935,-0.0001314956
80.19935,-0.0001314043
80.29935,-0.0001313393
80.39935,-0.0001312093
80.49934,-0.0001311293
80.59934,-0.0001310662
80.69934,-0.0001309654
80.79934,-0.0001308675
80.89934,-0.0001308599
80.99934,-0.0001307394
81.09933,-0.0001306518
81.19933,-0.0001305859
81.29933,-0.0001305191
81.39933,-0.0001304315
81.49933,-0.0001304286
81.59933,-0.0001302789
81.69933,-0.0001301245
81.79932,-0.0001300651
81.89932,-0.0001299606
81.99932,-0.0001298288
82.09932,-0.0001298401
82.19932,-0.0001297271
82.29932,-0.0001296536
82.39931,-0.000129631
82.49931,-0.0001295321
82.59931,-0.0001294521
82.69931,-0.0001294483
82.79931,-0.0001292675
82.89931,-0.0001291743
82.99931,-0.0001291441
83.0993,-0.0001290095
83.1993,-0.0001288974
83.2993,-0.0001288305
83.3993,-0.0001287684
83.4993,-0.0001286883
83.5993,-0.0001286506
83.6993,-0.0001285103
83.79929,-0.0001284331
83.89929,-0.0001283907
83.99929,-0.0001283333
84.09929,-0.0001282335
84.19929,-0.0001281402
84.29929,-0.0001280781
84.39928,-0.00012803
84.49928,-0.000127966
84.59928,-0.0001278605
84.69928,-0.0001278106
84.79928,-0.0001277033
84.89928,-0.0001276468
84.99928,-0.0001275564
85.09927,-0.0001274791
85.19927,-0.0001274104
85.29927,-0.0001273671
85.39927,-0.0001273115
85.49927,-0.0001272305
85.59927,-0.0001271787
85.69926,-0.0001270327
85.79926,-0.0001269424
85.89926,-0.0001268887
85.99926,-0.0001268284
86.09926,-0.0001267267
86.19926,-0.0001266175
86.29926,-0.0001265186
86.39925,-0.0001264734
86.49925,-0.0001264103
86.59925,-0.0001263623
86.69925,-0.0001263255
86.79925,-0.0001262276
86.89925,-0.0001260835
86.99924,-0.0001259959
87.09924,-0.0001259516
87.19924,-0.0001258132
87.29924,-0.0001257859
87.39924,-0.0001256936
87.49924,-0.0001256333
87.59924,-0.0001255684
87.69923,-0.0001254506
87.79923,-0.00012538
87.89923,-0.0001253508
87.99923,-0.0001253131
88.09923,-0.0001251653
