EXPID. 1037
[电化学]: CV : 0 >> 0.7 >> 0 >> 0(V) @ 0.01(V/s) X 10(Seg)
起始电位 (V),0
上限电位 (V),0.7
下限电位 (V),0
终止电位 (V),0
扫速 (V/s),0.01
电解液 信息:
KOH,1
0.001,4.999919E-06
0.002,5.557837E-06
0.003,5.934891E-06
0.004,6.321141E-06
0.005,6.551053E-06
0.006,6.842274E-06
0.007,7.093643E-06
0.008,7.323555E-06
0.009,7.538139E-06
0.01,7.786442E-06
0.011,7.924389E-06
0.012,8.148169E-06
0.013,8.316771E-06
0.014,8.50683E-06
0.015,8.706087E-06
0.016,8.985045E-06
0.017,9.239481E-06
0.018,9.533767E-06
0.019,9.791268E-06
0.02,9.969066E-06
0.021,1.012234E-05
0.022,1.033079E-05
0.023,1.055151E-05
0.024,1.071398E-05
0.025,1.084273E-05
0.026,1.105731E-05
0.027,1.11738E-05
0.028,1.147422E-05
0.029,1.165202E-05
0.03,1.190338E-05
0.031,1.217315E-05
0.032,1.234788E-05
0.033,1.25502E-05
0.034,1.274333E-05
0.035,1.285368E-05
0.036,1.305907E-05
0.037,1.324913E-05
0.038,1.337175E-05
0.039,1.350357E-05
0.04,1.370589E-05
0.041,1.387756E-05
0.042,1.408907E-05
0.043,1.42914E-05
0.044,1.450904E-05
0.045,1.473589E-05
0.046,1.489836E-05
0.047,1.511294E-05
0.048,1.524783E-05
0.049,1.536125E-05
0.05,1.559116E-05
0.051,1.570765E-05
0.052,1.590997E-05
0.053,1.601113E-05
0.054,1.610003E-05
0.055,1.630848E-05
0.056,1.643723E-05
0.057,1.656598E-05
0.058,1.680203E-05
0.059,1.693691E-05
0.06,1.719747E-05
0.061,1.739979E-05
0.062,1.754387E-05
0.063,1.776459E-05
0.064,1.789027E-05
0.065,1.805581E-05
0.066,1.817843E-05
0.067,1.827959E-05
0.068,1.849724E-05
0.069,1.858307E-05
0.07,1.872408E-05
0.071,1.889882E-05
0.072,1.907355E-05
0.073,1.929733E-05
0.074,1.949045E-05
0.075,1.971117E-05
0.076,1.998093E-05
0.077,2.004224E-05
0.078,2.02323E-05
0.079,2.045915E-05
0.08,2.056951E-05
0.081,2.070132E-05
0.082,2.090364E-05
0.083,2.100174E-05
0.084,2.120099E-05
0.085,2.140945E-05
0.086,2.159031E-05
0.087,2.18049E-05
0.088,2.199189E-05
0.089,2.22126E-05
0.09,2.243025E-05
0.091,2.261725E-05
0.092,2.287168E-05
0.093,2.310772E-05
0.094,2.332537E-05
0.095,2.356448E-05
0.096,2.418782E-05
0.097,2.43411E-05
0.098,2.455568E-05
0.099,2.470896E-05
0.1,2.498485E-05
0.101,2.519943E-05
0.102,2.547533E-05
0.103,2.568991E-05
0.104,2.587384E-05
0.105,2.608842E-05
0.106,2.639497E-05
0.107,2.654824E-05
0.108,2.679348E-05
0.109,2.710003E-05
0.11,2.734527E-05
0.111,2.765182E-05
0.112,2.78664E-05
0.113,2.811164E-05
0.114,2.838754E-05
0.115,2.869408E-05
0.116,2.896998E-05
0.117,2.927653E-05
0.118,2.955242E-05
0.119,2.982831E-05
0.12,3.010421E-05
0.121,3.047206E-05
0.122,3.077861E-05
0.123,3.114647E-05
0.124,3.163695E-05
0.125,3.188219E-05
0.126,3.221939E-05
0.127,3.252594E-05
0.128,3.277118E-05
0.129,3.313903E-05
0.13,3.359886E-05
0.131,3.39054E-05
0.132,3.448785E-05
0.133,3.48557E-05
0.134,3.522356E-05
0.135,3.571404E-05
0.136,3.605124E-05
0.137,3.635779E-05
0.138,3.687892E-05
0.139,3.733874E-05
0.14,3.789053E-05
0.141,3.835035E-05
0.142,3.877952E-05
0.143,3.930065E-05
0.144,3.972982E-05
0.145,4.015899E-05
0.146,4.068012E-05
0.147,4.123191E-05
0.148,4.190631E-05
0.149,4.24581E-05
0.15,4.294858E-05
0.151,4.350036E-05
0.152,4.402149E-05
0.153,4.460394E-05
0.154,4.524769E-05
0.155,4.570751E-05
0.156,4.647388E-05
0.157,4.714829E-05
0.158,4.773073E-05
0.159,4.846645E-05
0.16,4.907954E-05
0.161,4.972329E-05
0.162,5.03977E-05
0.163,5.10108E-05
0.164,5.174651E-05
0.165,5.248223E-05
0.166,5.330991E-05
0.167,5.413758E-05
0.168,5.490396E-05
0.169,5.563968E-05
0.17,5.64367E-05
0.171,5.720307E-05
0.172,5.806141E-05
0.173,5.885843E-05
0.174,5.971677E-05
0.175,6.072838E-05
0.176,6.167868E-05
0.177,6.262898E-05
0.178,6.354862E-05
0.179,6.443761E-05
0.18,6.551053E-05
0.181,6.643018E-05
0.182,6.734982E-05
0.183,6.848405E-05
0.184,6.961828E-05
0.185,7.072185E-05
0.186,7.204001E-05
0.187,7.308227E-05
0.188,7.430847E-05
0.189,7.547335E-05
0.19,7.666889E-05
0.191,7.798705E-05
0.192,7.924389E-05
0.193,8.05927E-05
0.194,8.209479E-05
0.195,8.350491E-05
0.196,8.503765E-05
0.197,8.638646E-05
0.198,8.794986E-05
0.199,8.94826E-05
0.2,9.101534E-05
0.201,9.264005E-05
0.202,9.438737E-05
0.203,9.61347E-05
0.204,9.806595E-05
0.205,9.981328E-05
0.206,0.0001015912
0.207,0.0001036145
0.208,0.0001053924
0.209,0.0001073544
0.21,0.0001094082
0.211,0.0001114315
0.212,0.0001136999
0.213,0.0001159071
0.214,0.0001182062
0.215,0.000120444
0.216,0.0001227737
0.217,0.0001251035
0.218,0.0001275865
0.219,0.0001299776
0.22,0.000132522
0.221,0.0001350663
0.222,0.000137672
0.223,0.0001404616
0.224,0.0001432205
0.225,0.0001461021
0.226,0.000148953
0.227,0.0001517119
0.228,0.0001547774
0.229,0.0001576283
0.23,0.0001606018
0.231,0.0001637286
0.232,0.0001667634
0.233,0.0001698595
0.234,0.0001731703
0.235,0.0001762971
0.236,0.0001797611
0.237,0.0001831944
0.238,0.0001865051
0.239,0.0001899691
0.24,0.0001934331
0.241,0.0001967745
0.242,0.0002002691
0.243,0.0002038251
0.244,0.000207473
0.245,0.000211029
0.246,0.0002146769
0.247,0.0002183862
0.248,0.0002220034
0.249,0.0002258353
0.25,0.0002296978
0.251,0.0002333764
0.252,0.0002374841
0.253,0.0002414079
0.254,0.0002452398
0.255,0.0002495008
0.256,0.0002535166
0.257,0.000257747
0.258,0.0002620693
0.259,0.0002662383
0.26,0.0002707752
0.261,0.0002751589
0.262,0.0002795119
0.263,0.0002842327
0.264,0.0002887083
0.265,0.0002970569
0.266,0.0003016552
0.267,0.0003065599
0.268,0.0003117713
0.269,0.000316676
0.27,0.0003218873
0.271,0.0003274052
0.272,0.0003329231
0.273,0.000338441
0.274,0.0003439588
0.275,0.0003497833
0.276,0.0003562208
0.277,0.0003623517
0.278,0.0003687892
0.279,0.0003758399
0.28,0.0003822774
0.281,0.000389328
0.282,0.0003969917
0.283,0.0004040423
0.284,0.0004120126
0.285,0.0004199828
0.286,0.0004282596
0.287,0.000436843
0.288,0.0004460394
0.289,0.0004549293
0.29,0.0004647389
0.291,0.0004745484
0.292,0.0004852776
0.293,0.0004957002
0.294,0.0005067359
0.295,0.0005186913
0.296,0.0005306468
0.297,0.0005435218
0.298,0.0005567034
0.299,0.0005698849
0.3,0.0005849058
0.301,0.0005993135
0.302,0.000614641
0.303,0.0006311946
0.304,0.0006477482
0.305,0.0006652214
0.306,0.0006839209
0.307,0.0007032334
0.308,0.0007237722
0.309,0.000744924
0.31,0.0007663824
0.311,0.0007899866
0.312,0.0008135908
0.313,0.0008387277
0.314,0.000865704
0.315,0.0008926803
0.316,0.0009221089
0.317,0.0009524572
0.318,0.0009837251
0.319,0.001017445
0.32,0.001052392
0.321,0.001089178
0.322,0.001127803
0.323,0.001167961
0.324,0.00121149
0.325,0.001255327
0.326,0.001302535
0.327,0.00135189
0.328,0.00140247
0.329,0.001457649
0.33,0.001514667
0.331,0.00157383
0.332,0.001638512
0.333,0.001703194
0.334,0.001772167
0.335,0.001846658
0.336,0.001922069
0.337,0.002003611
0.338,0.002089445
0.339,0.002177118
0.34,0.002271841
0.341,0.00236963
0.342,0.002472017
0.343,0.002581148
0.344,0.002693345
0.345,0.002812285
0.346,0.002938277
0.347,0.003067334
0.348,0.003237266
0.349,0.003375213
0.35,0.003525421
0.351,0.003681761
0.352,0.003841166
0.353,0.004012833
0.354,0.004190631
0.355,0.004371495
0.356,0.00456462
0.357,0.004760811
0.358,0.004969264
0.359,0.005180782
0.36,0.005398431
0.361,0.005628342
0.362,0.005861319
0.363,0.006100427
0.364,0.006348731
0.365,0.006600101
0.366,0.006857601
0.367,0.007124298
0.368,0.007390995
0.369,0.007666889
0.37,0.007945848
0.371,0.008224807
0.372,0.008516028
0.373,0.008804183
0.374,0.009095403
0.375,0.009392755
0.376,0.009687042
0.377,0.009987459
0.378,0.01029094
0.379,0.01059136
0.38,0.01089484
0.381,0.01119526
0.382,0.01149568
0.383,0.01179609
0.384,0.01209344
0.385,0.01239386
0.386,0.01269121
0.387,0.01298243
0.388,0.01327672
0.389,0.01356488
0.39,0.01384997
0.391,0.01413506
0.392,0.01441095
0.393,0.01468991
0.394,0.01496274
0.395,0.01522943
0.396,0.01549613
0.397,0.0157567
0.398,0.01601113
0.399,0.01626557
0.4,0.01651081
0.401,0.01675604
0.402,0.01699515
0.403,0.01723119
0.404,0.0174611
0.405,0.01768488
0.406,0.0179056
0.407,0.01812325
0.408,0.01832864
0.409,0.01854016
0.41,0.01874554
0.411,0.0189356
0.412,0.01912566
0.413,0.01930039
0.414,0.019469
0.415,0.0196376
0.416,0.01979087
0.417,0.01993801
0.418,0.02007903
0.419,0.02021084
0.42,0.02033346
0.421,0.02044689
0.422,0.02055111
0.423,0.02064308
0.424,0.02072891
0.425,0.02080555
0.426,0.02086992
0.427,0.0209251
0.428,0.02097415
0.429,0.02100787
0.43,0.02103546
0.431,0.02105079
0.432,0.02105385
0.433,0.02105385
0.434,0.02104159
0.435,0.021014
0.436,0.02098641
0.437,0.02094043
0.438,0.02088525
0.439,0.02082701
0.44,0.02075343
0.441,0.02067373
0.442,0.02059096
0.443,0.0204898
0.444,0.02037944
0.445,0.02026296
0.446,0.02013421
0.447,0.01999319
0.448,0.01985525
0.449,0.01969891
0.45,0.01953031
0.451,0.01935864
0.452,0.01917778
0.453,0.01897852
0.454,0.01878233
0.455,0.01857694
0.456,0.01835009
0.457,0.01813245
0.458,0.01790253
0.459,0.01765423
0.46,0.01741512
0.461,0.01716375
0.462,0.01690625
0.463,0.01664875
0.464,0.01637899
0.465,0.01611229
0.466,0.01583946
0.467,0.01556357
0.468,0.01528768
0.469,0.01501178
0.47,0.01473589
0.471,0.01445693
0.472,0.0141841
0.473,0.01392047
0.474,0.01365377
0.475,0.01339934
0.476,0.0131541
0.477,0.0129058
0.478,0.01267895
0.479,0.01246437
0.48,0.01225285
0.481,0.01206279
0.482,0.01188806
0.483,0.01172252
0.484,0.01158151
0.485,0.01145582
0.486,0.01134853
0.487,0.01126883
0.488,0.01120446
0.489,0.01116154
0.49,0.01114008
0.491,0.01113701
0.492,0.01115541
0.493,0.01119526
0.494,0.01125963
0.495,0.01133321
0.496,0.01142824
0.497,0.01155085
0.498,0.0116796
0.499,0.01182675
0.5,0.01200148
0.501,0.01217621
0.502,0.01236934
0.503,0.01258086
0.504,0.01279237
0.505,0.01302535
0.506,0.01327059
0.507,0.0135189
0.508,0.01378559
0.509,0.01405842
0.51,0.01433431
0.511,0.01462247
0.512,0.01492595
0.513,0.01522637
0.514,0.01553292
0.515,0.01585173
0.516,0.0161736
0.517,0.01649548
0.518,0.01682962
0.519,0.01716682
0.52,0.01750402
0.521,0.01785655
0.522,0.01820295
0.523,0.01855548
0.524,0.01892027
0.525,0.01927894
0.526,0.01964066
0.527,0.02001772
0.528,0.02037944
0.529,0.02075343
0.53,0.02113662
0.531,0.02151367
0.532,0.02189686
0.533,0.02228311
0.534,0.02266936
0.535,0.02305561
0.536,0.02345106
0.537,0.02384344
0.538,0.02423582
0.539,0.02463434
0.54,0.02503898
0.541,0.02543136
0.542,0.025836
0.543,0.02624065
0.544,0.02664529
0.545,0.027053
0.546,0.02746378
0.547,0.02787148
0.548,0.02828532
0.549,0.02869303
0.55,0.02910687
0.551,0.02952991
0.552,0.02994375
0.553,0.03114647
0.554,0.03154498
0.555,0.03197415
0.556,0.03240332
0.557,0.03283248
0.558,0.03326165
0.559,0.03366017
0.56,0.03411999
0.561,0.03454916
0.562,0.03497833
0.563,0.03540749
0.564,0.03583666
0.565,0.03626583
0.566,0.036695
0.567,0.03715482
0.568,0.03758398
0.569,0.03801315
0.57,0.03847298
0.571,0.03890214
0.572,0.03936196
0.573,0.03979113
0.574,0.0402203
0.575,0.04068012
0.576,0.04110929
0.577,0.04156911
0.578,0.04199828
0.579,0.0424581
0.58,0.04288727
0.581,0.04334709
0.582,0.04380691
0.583,0.04423608
0.584,0.04469591
0.585,0.04512507
0.586,0.04558489
0.587,0.04604472
0.588,0.04650454
0.589,0.04696436
0.59,0.04739353
0.591,0.04785335
0.592,0.04831317
0.593,0.048773
0.594,0.04923282
0.595,0.04966199
0.596,0.05012181
0.597,0.05058163
0.598,0.0510108
0.599,0.05147062
0.6,0.05193045
0.601,0.05239027
0.602,0.05285009
0.603,0.05330991
0.604,0.05380039
0.605,0.05422956
0.606,0.05468938
0.607,0.0551492
0.608,0.05560903
0.609,0.0560995
0.61,0.05652867
0.611,0.05698849
0.612,0.05747896
0.613,0.05793879
0.614,0.05839861
0.615,0.05885844
0.616,0.05931826
0.617,0.05977808
0.618,0.06026856
0.619,0.06072838
0.62,0.0611882
0.621,0.06164802
0.622,0.0621385
0.623,0.06259833
0.624,0.06305815
0.625,0.06351797
0.626,0.06397779
0.627,0.06443761
0.628,0.06492809
0.629,0.06535726
0.63,0.06584774
0.631,0.06630756
0.632,0.06676738
0.633,0.06725786
0.634,0.06771768
0.635,0.06817751
0.636,0.06863733
0.637,0.06909715
0.638,0.06958763
0.639,0.07004745
0.64,0.07053792
0.641,0.0710284
0.642,0.07145756
0.643,0.07191739
0.644,0.07240786
0.645,0.07286769
0.646,0.07335817
0.647,0.07381799
0.648,0.07430847
0.649,0.07473763
0.65,0.07522812
0.651,0.07571859
0.652,0.07617841
0.653,0.07666889
0.654,0.07712871
0.655,0.07755788
0.656,0.07804836
0.657,0.07853883
0.658,0.07899866
0.659,0.07948913
0.66,0.07994895
0.661,0.08040877
0.662,0.08089925
0.663,0.08135908
0.664,0.0818189
0.665,0.08227872
0.666,0.0827692
0.667,0.08325968
0.668,0.0837195
0.669,0.08420997
0.67,0.0846698
0.671,0.08516028
0.672,0.08565076
0.673,0.08614123
0.674,0.08660105
0.675,0.08706088
0.676,0.08755135
0.677,0.08801118
0.678,0.08850165
0.679,0.08899213
0.68,0.08945195
0.681,0.08991177
0.682,0.09040225
0.683,0.09089272
0.684,0.09135254
0.685,0.09184303
0.686,0.0923335
0.687,0.09279333
0.688,0.0932838
0.689,0.09377428
0.69,0.09426476
0.691,0.09475523
0.692,0.09524571
0.693,0.09573619
0.694,0.09619602
0.695,0.09668649
0.696,0.09714631
0.697,0.09763679
0.698,0.09809661
0.699,0.09861775
0.7,0.09874036
0.6990001,0.09824988
0.6980001,0.09779006
0.6970001,0.09733024
0.6960001,0.09683976
0.6950001,0.09637994
0.6940001,0.09588946
0.6930001,0.09539898
0.6920001,0.09493916
0.6910001,0.09447934
0.6900001,0.09395821
0.6890001,0.09352904
0.6880001,0.09303857
0.6870001,0.09251743
0.6860001,0.09208827
0.6850001,0.09159779
0.6840001,0.09110731
0.6830001,0.09067815
0.6820001,0.09015701
0.6810001,0.08969719
0.6800001,0.08920672
0.6790001,0.08871623
0.6780001,0.08825641
0.6770001,0.08779659
0.6760001,0.08727546
0.6750001,0.08681564
0.6740001,0.08635581
0.6730001,0.08586534
0.6720001,0.08537485
0.6710001,0.08491503
0.6700001,0.08445521
0.6690001,0.08396474
0.6680001,0.08347426
0.6670001,0.08301444
0.6660001,0.08255462
0.6650001,0.08206414
0.6640001,0.08160432
0.6630001,0.0811445
0.6620001,0.08068467
0.6610001,0.0801942
0.6600001,0.07973437
0.6590001,0.07927455
0.6580001,0.07881473
0.6570001,0.0783549
0.6560001,0.07789508
0.6550001,0.07743526
0.6540001,0.07694478
0.6530001,0.07648496
0.6520001,0.07602514
0.6510001,0.07556532
0.6500001,0.07510549
0.6490001,0.07464567
0.6480001,0.07421651
0.6470001,0.07375668
0.6460001,0.07329686
0.6450001,0.07283704
0.6440001,0.07237721
0.6430001,0.07191739
0.6420001,0.07148822
0.6410001,0.0710284
0.6400001,0.07056858
0.6390001,0.07010876
0.6380001,0.06967959
0.6370001,0.06918911
0.6360001,0.06872929
0.6350001,0.06830012
0.6340001,0.0678403
0.6330001,0.06738048
0.6320001,0.06692065
0.6310001,0.06646083
0.6300001,0.06603166
0.6290001,0.06557184
0.6280001,0.06511202
0.6270001,0.0646522
0.6260001,0.06419238
0.6250001,0.06376321
0.6240001,0.06330338
0.6230001,0.06284356
0.6220001,0.0624144
0.6210001,0.06195457
0.6200001,0.06149475
0.6190001,0.06106558
0.6180001,0.06060576
0.6170001,0.06017659
0.6160001,0.05971677
0.6150001,0.05925695
0.6140001,0.05882778
0.6130001,0.05836796
0.6120001,0.05790814
0.6110001,0.05747896
0.6100001,0.05701914
0.6090001,0.05655932
0.6080001,0.05613015
0.6070001,0.05567033
0.6060001,0.05521051
0.6050001,0.05478134
0.6040001,0.05435218
0.6030001,0.05389235
0.6020001,0.05343253
0.6010001,0.0529727
0.6000001,0.05251288
0.5990001,0.05208372
0.5980001,0.05165455
0.5970001,0.05119473
0.5960001,0.05073491
0.5950001,0.05030574
0.5940001,0.04987657
0.5930001,0.04941675
0.5920001,0.04898758
0.5910001,0.04852776
0.5900001,0.04809859
0.5890001,0.04763877
0.5880001,0.0472096
0.5870001,0.04678043
0.5860001,0.04632061
0.5850001,0.04589145
0.5840001,0.04543162
0.5830001,0.04500245
0.5820001,0.04457328
0.5810001,0.04411346
0.5800001,0.0436843
0.5790001,0.04325513
0.5780001,0.0427953
0.5770001,0.04236614
0.5760001,0.04193697
0.5750001,0.04147715
0.5740001,0.04104798
0.5730001,0.04061881
0.5720001,0.04018965
0.5710001,0.03976048
0.5700001,0.03933131
0.5690001,0.03890214
0.5680001,0.03847298
0.5670001,0.03801315
0.5660001,0.03758398
0.5650001,0.03718547
0.5640001,0.03672565
0.5630001,0.03629648
0.5620001,0.03586731
0.5610001,0.03543815
0.5600001,0.03503963
0.5590001,0.03461047
0.5580001,0.0341813
0.5570001,0.03375213
0.5560001,0.03335362
0.5550001,0.03292445
0.5540001,0.03249529
0.5530001,0.03209677
0.5520001,0.0316676
0.5510001,0.03123844
0.5500001,0.03083992
0.5490001,0.03041076
0.5480001,0.02998159
0.5470001,0.02958308
0.5460001,0.02915391
0.5450001,0.02875539
0.5440001,0.02835688
0.5430001,0.02792772
0.5420001,0.0275292
0.5410001,0.02710003
0.5400001,0.02670152
0.5390001,0.02630301
0.5380001,0.0259045
0.5370001,0.02550598
0.5360001,0.02510747
0.5350001,0.02470896
0.5340001,0.02431045
0.5330001,0.02391193
0.5320001,0.02351342
0.5310001,0.02311491
0.5300001,0.02271639
0.5290001,0.02231788
0.5280001,0.02191937
0.5270001,0.02152086
0.5260001,0.021153
0.5250001,0.02075448
0.5240001,0.02038663
0.5230001,0.01998811
0.5220001,0.01962026
0.5210001,0.01922174
0.5200001,0.01885389
0.5190001,0.01848603
0.5180001,0.01811817
0.5170001,0.01775031
0.5160001,0.01738245
0.5150001,0.0170146
0.5140001,0.01664674
0.5130001,0.01627888
0.5120001,0.01591102
0.5110001,0.01554316
0.5100001,0.01520596
0.5090001,0.0148381
0.5080001,0.01447024
0.5070001,0.01413304
0.5060001,0.01376519
0.5050001,0.01342798
0.5040001,0.01309078
0.5030001,0.01224059
0.5020001,0.01190952
0.5010001,0.01157844
0.5000001,0.01125044
0.4990001,0.01092243
0.4980001,0.01060055
0.4970001,0.01028175
0.4960001,0.009966001
0.4950001,0.009650256
0.4940001,0.009340642
0.4930001,0.009031028
0.4920001,0.008727546
0.4910001,0.008430193
0.4900001,0.008129776
0.4890001,0.007838556
0.4880001,0.0075504
0.4870001,0.007259179
0.4860001,0.006983286
0.4850001,0.006704327
0.4840001,0.006428434
0.4830001,0.006158671
0.4820001,0.005891975
0.4810001,0.005631408
0.4800001,0.005373908
0.4790001,0.005116407
0.4780001,0.004871169
0.4770001,0.00462593
0.4760001,0.004383757
0.4750001,0.00415078
0.4740001,0.003917804
0.4730001,0.003687892
0.4720001,0.003470243
0.4710001,0.003252594
0.4700001,0.003041075
0.4690001,0.002835688
0.4680001,0.002630301
0.4670001,0.002437175
0.4660001,0.002240984
0.4650001,0.002057055
0.4640001,0.001876192
0.4630001,0.001698394
0.4620001,0.001526727
0.4610001,0.001358125
0.4600001,0.001195655
0.4590001,0.001009475
0.4580001,0.0008571207
0.4570001,0.000710284
0.4560001,0.0005701915
0.4550001,0.0004300989
0.4540001,0.0002985897
0.4530001,0.0001710656
0.4520001,4.630047E-05
0.4510001,-7.357041E-05
0.4500001,-0.0001893843
0.4490001,-0.0002986075
0.4480001,-0.000404019
0.4470001,-0.0005085519
0.4460001,-0.0006026622
0.4450001,-0.000696466
0.4440001,-0.0007896567
0.4430001,-0.0008724247
0.4420001,-0.0009585648
0.4410001,-0.001040413
0.4400001,-0.001113678
0.4390001,-0.001190622
0.4380001,-0.001260515
0.4370001,-0.001328875
0.4360001,-0.001396316
0.4350001,-0.001456706
0.4340001,-0.001518629
0.4330001,-0.001576566
0.4320001,-0.001632051
0.4310001,-0.001689069
0.4300001,-0.00173873
0.4290001,-0.001791763
0.4280001,-0.00184265
0.4270001,-0.001886793
0.4260001,-0.001935534
0.4250001,-0.001979984
0.4240001,-0.002020448
0.4230001,-0.002067043
0.4220001,-0.002107201
0.4210001,-0.002146439
0.4200001,-0.002188743
0.4190001,-0.002222463
0.4180001,-0.002262008
0.4170001,-0.002299407
0.4160001,-0.00233374
0.4150001,-0.002372365
0.4140001,-0.002405779
0.4130001,-0.0024395
0.4120001,-0.002475672
0.4110001,-0.002508166
0.4100001,-0.002547711
0.4090001,-0.002585416
0.4080001,-0.002614539
0.4070001,-0.002647952
0.4060001,-0.002677381
0.4050001,-0.002710488
0.4040001,-0.002742676
0.4030001,-0.002772717
0.4020001,-0.002807357
0.4010001,-0.002838012
0.4000001,-0.002867134
0.3990001,-0.002903307
0.3980001,-0.002932735
0.3970001,-0.00296523
0.3960001,-0.003000789
0.3950001,-0.002991794
0.3940001,-0.003022449
0.3930001,-0.003056169
0.3920001,-0.003086824
0.3910001,-0.003120545
0.3900001,-0.003154265
0.3890001,-0.003184919
0.3880001,-0.00321864
0.3870001,-0.00325236
0.3860001,-0.003286081
0.3850001,-0.003319801
0.3840001,-0.003353521
0.3830001,-0.003390307
0.3820001,-0.003420962
0.3810001,-0.003457748
0.3800001,-0.003494533
0.3790001,-0.003525188
0.3780001,-0.003565039
0.3770001,-0.003601825
0.3760001,-0.00363248
0.3750001,-0.003672331
0.3740001,-0.003706052
0.3730001,-0.003742838
0.3720001,-0.003785754
0.3710001,-0.003819474
0.3700001,-0.003859326
0.3690001,-0.003899177
0.3680001,-0.003932897
0.3670001,-0.003975814
0.3660001,-0.0040126
0.3650001,-0.004052451
0.3640001,-0.004095368
0.3630001,-0.004132153
0.3620001,-0.00417507
0.3610001,-0.004214922
0.3600001,-0.004254773
0.3590001,-0.00429769
0.3580001,-0.004340607
0.3570001,-0.004383523
