EXPID. 1119
[电化学]: CV : 0 >> 0.7 >> 0 >> 0(V) @ 0.01(V/s) X 10(Seg)
起始电位 (V),0
上限电位 (V),0.7
下限电位 (V),0
终止电位 (V),0
扫速 (V/s),0.01
电解液 信息:
KOH,1
0.001,0.0005904236
0.002,0.0006207719
0.003,0.0006514268
0.004,0.0006842274
0.005,0.0007179478
0.006,0.0007538139
0.007,0.000792439
0.008,0.0008313706
0.009,0.0008736742
0.01,0.0009184303
0.011,0.000964106
0.012,0.00101346
0.013,0.00106496
0.014,0.0011183
0.015,0.001175011
0.016,0.001233868
0.017,0.001295485
0.018,0.00135986
0.019,0.001426994
0.02,0.001497193
0.021,0.001569845
0.022,0.001645256
0.023,0.001724652
0.024,0.001805581
0.025,0.001891108
0.026,0.001979087
0.027,0.002069826
0.028,0.002165469
0.029,0.002262645
0.03,0.002363499
0.031,0.002468645
0.032,0.002575937
0.033,0.00268752
0.034,0.002802476
0.035,0.002918964
0.036,0.00304189
0.037,0.00320048
0.038,0.003326165
0.039,0.003457981
0.04,0.003589797
0.041,0.003727744
0.042,0.003871821
0.043,0.004012833
0.044,0.004163042
0.045,0.004313251
0.046,0.004466525
0.047,0.004622865
0.048,0.00478227
0.049,0.004947806
0.05,0.005113342
0.051,0.005281943
0.052,0.005456676
0.053,0.005634474
0.054,0.005812271
0.055,0.005993135
0.056,0.006180129
0.057,0.00637019
0.058,0.006560249
0.059,0.006753375
0.06,0.006955697
0.061,0.007154953
0.062,0.00736034
0.063,0.007568793
0.064,0.007780312
0.065,0.007994896
0.066,0.008212545
0.067,0.008433259
0.068,0.008660105
0.069,0.00888695
0.07,0.009119927
0.071,0.009355969
0.072,0.009595077
0.073,0.009834184
0.074,0.01007942
0.075,0.01032773
0.076,0.01058216
0.077,0.01083353
0.078,0.01109103
0.079,0.01135466
0.08,0.01161216
0.081,0.01188499
0.082,0.01215169
0.083,0.01242145
0.084,0.01270348
0.085,0.01297324
0.086,0.01325526
0.087,0.01353729
0.088,0.01381625
0.089,0.0141044
0.09,0.01439256
0.091,0.01467458
0.092,0.01496887
0.093,0.01525702
0.094,0.01554824
0.095,0.01584253
0.096,0.01613069
0.097,0.01642804
0.098,0.01671926
0.099,0.01701048
0.1,0.01730783
0.101,0.01759599
0.102,0.01789334
0.103,0.01819069
0.104,0.01847884
0.105,0.01877007
0.106,0.01905822
0.107,0.01934331
0.108,0.01963453
0.109,0.01991962
0.11,0.02020165
0.111,0.02048367
0.112,0.02076263
0.113,0.02104159
0.114,0.02131748
0.115,0.02159338
0.116,0.02186927
0.117,0.02213597
0.118,0.02240573
0.119,0.02266936
0.12,0.02292993
0.121,0.02319356
0.122,0.02344799
0.123,0.02370243
0.124,0.02395686
0.125,0.02419904
0.126,0.02444427
0.127,0.02468645
0.128,0.02491943
0.129,0.02515853
0.13,0.02538844
0.131,0.02561223
0.132,0.02583907
0.133,0.02605672
0.134,0.02627437
0.135,0.02648589
0.136,0.02668821
0.137,0.02689666
0.138,0.02708979
0.139,0.02728291
0.14,0.0274791
0.141,0.02765997
0.142,0.02784083
0.143,0.02801863
0.144,0.02818416
0.145,0.02835277
0.146,0.02851524
0.147,0.02866238
0.148,0.02881565
0.149,0.02895973
0.15,0.02909461
0.151,0.02922949
0.152,0.02935518
0.153,0.02948086
0.154,0.02960042
0.155,0.02971077
0.156,0.02981807
0.157,0.0299131
0.158,0.03001426
0.159,0.03090123
0.16,0.03096254
0.161,0.03102385
0.162,0.03111582
0.163,0.03117712
0.164,0.03123844
0.165,0.03126909
0.166,0.0313304
0.167,0.03139171
0.168,0.03142237
0.169,0.03145302
0.17,0.03145302
0.171,0.03148368
0.172,0.03148368
0.173,0.03151433
0.174,0.03151433
0.175,0.03151433
0.176,0.03148368
0.177,0.03148368
0.178,0.03145302
0.179,0.03142237
0.18,0.03139171
0.181,0.03136105
0.182,0.03129975
0.183,0.03126909
0.184,0.03120778
0.185,0.03114647
0.186,0.03108516
0.187,0.0309932
0.188,0.03093189
0.189,0.03083992
0.19,0.03074796
0.191,0.03065599
0.192,0.03056403
0.193,0.03044141
0.194,0.03034945
0.195,0.03022683
0.196,0.03007355
0.197,0.02995093
0.198,0.02982831
0.199,0.02967504
0.2,0.02952177
0.201,0.02936849
0.202,0.02918456
0.203,0.02903129
0.204,0.02884736
0.205,0.02866343
0.206,0.0284795
0.207,0.02829557
0.208,0.02808099
0.209,0.02786641
0.21,0.02765182
0.211,0.02743724
0.212,0.027192
0.213,0.02697741
0.214,0.02673218
0.215,0.02648694
0.216,0.02621104
0.217,0.0259658
0.218,0.02572057
0.219,0.02544468
0.22,0.02516878
0.221,0.02489289
0.222,0.02458634
0.223,0.02431045
0.224,0.02403455
0.225,0.023728
0.226,0.02345211
0.227,0.02314556
0.228,0.02283901
0.229,0.02253246
0.23,0.02222592
0.231,0.02191937
0.232,0.02161282
0.233,0.02130627
0.234,0.02099972
0.235,0.02069318
0.236,0.02038663
0.237,0.02004942
0.238,0.01977353
0.239,0.01946698
0.24,0.01916043
0.241,0.01885389
0.242,0.01857799
0.243,0.01827144
0.244,0.01799555
0.245,0.017689
0.246,0.01741311
0.247,0.01713721
0.248,0.01683067
0.249,0.01655477
0.25,0.01630954
0.251,0.01603364
0.252,0.01575775
0.253,0.01551251
0.254,0.01526727
0.255,0.01502203
0.256,0.01477679
0.257,0.01453156
0.258,0.01428632
0.259,0.01404108
0.26,0.01382649
0.261,0.01361191
0.262,0.01339733
0.263,0.01266669
0.264,0.0124613
0.265,0.01225898
0.266,0.01207199
0.267,0.01187886
0.268,0.01169493
0.269,0.01152327
0.27,0.01134547
0.271,0.0111738
0.272,0.01101133
0.273,0.01085192
0.274,0.01068945
0.275,0.01054231
0.276,0.0104013
0.277,0.01025109
0.278,0.01011314
0.279,0.009981328
0.28,0.009843381
0.281,0.009717696
0.282,0.009595077
0.283,0.009469392
0.284,0.009355969
0.285,0.009242547
0.286,0.009132189
0.287,0.009024898
0.288,0.008923736
0.289,0.00881951
0.29,0.008715284
0.291,0.008623319
0.292,0.008531354
0.293,0.008433259
0.294,0.008353557
0.295,0.008264658
0.296,0.00818189
0.297,0.008105253
0.298,0.008022484
0.299,0.007945848
0.3,0.007872276
0.301,0.007795639
0.302,0.007725133
0.303,0.007657692
0.304,0.007587186
0.305,0.007525877
0.306,0.007461501
0.307,0.007400192
0.308,0.007345013
0.309,0.007280638
0.31,0.007222394
0.311,0.007167215
0.312,0.007105905
0.313,0.007056858
0.314,0.007004744
0.315,0.006949566
0.316,0.006891321
0.317,0.006842274
0.318,0.006793226
0.319,0.006753375
0.32,0.006704327
0.321,0.006658345
0.322,0.006618494
0.323,0.006572511
0.324,0.00653266
0.325,0.006489743
0.326,0.006449892
0.327,0.006413106
0.328,0.006373255
0.329,0.006339534
0.33,0.006299683
0.331,0.006262898
0.332,0.006232243
0.333,0.006192391
0.334,0.006158671
0.335,0.006128016
0.336,0.006091231
0.337,0.006063641
0.338,0.006032987
0.339,0.005999266
0.34,0.005971677
0.341,0.005944087
0.342,0.005910367
0.343,0.005885844
0.344,0.005855188
0.345,0.005827599
0.346,0.005806141
0.347,0.005778552
0.348,0.005754027
0.349,0.005723373
0.35,0.005701914
0.351,0.005680456
0.352,0.005652867
0.353,0.005634474
0.354,0.00560995
0.355,0.005585426
0.356,0.005567033
0.357,0.005542509
0.358,0.005524116
0.359,0.005505723
0.36,0.005478134
0.361,0.005462807
0.362,0.005444414
0.363,0.00541989
0.364,0.005404562
0.365,0.00538617
0.366,0.005364711
0.367,0.005349384
0.368,0.005330991
0.369,0.005312598
0.37,0.00529727
0.371,0.005281943
0.372,0.005266616
0.373,0.005245158
0.374,0.00522983
0.375,0.005217568
0.376,0.00519611
0.377,0.005183848
0.378,0.00516852
0.379,0.005153193
0.38,0.005140931
0.381,0.005122538
0.382,0.005110276
0.383,0.005094949
0.384,0.005079621
0.385,0.005067359
0.386,0.005052032
0.387,0.00503977
0.388,0.005030573
0.389,0.005012181
0.39,0.004999919
0.391,0.004993788
0.392,0.00497846
0.393,0.004966198
0.394,0.004957002
0.395,0.004941675
0.396,0.004932478
0.397,0.004920216
0.398,0.004907954
0.399,0.004898758
0.4,0.00488343
0.401,0.004874234
0.402,0.004865037
0.403,0.004852775
0.404,0.004843579
0.405,0.004831317
0.406,0.004822121
0.407,0.004812925
0.408,0.004800662
0.409,0.004797597
0.41,0.004794532
0.411,0.00478227
0.412,0.004776138
0.413,0.004763877
0.414,0.00475468
0.415,0.004748549
0.416,0.004736287
0.417,0.004730156
0.418,0.004724025
0.419,0.004711763
0.42,0.004708698
0.421,0.004699502
0.422,0.004693371
0.423,0.004690305
0.424,0.004681109
0.425,0.004674978
0.426,0.004671912
0.427,0.004665781
0.428,0.00465965
0.429,0.004656585
0.43,0.004653519
0.431,0.004647388
0.432,0.004641257
0.433,0.004644323
0.434,0.004638192
0.435,0.004632061
0.436,0.004638192
0.437,0.004632061
0.438,0.004632061
0.439,0.004635126
0.44,0.004632061
0.441,0.004635126
0.442,0.004635126
0.443,0.004635126
0.444,0.004641257
0.445,0.004644323
0.446,0.004647388
0.447,0.004653519
0.448,0.004656585
0.449,0.004665781
0.45,0.004671912
0.451,0.004678043
0.452,0.004693371
0.453,0.004699502
0.454,0.004711763
0.455,0.004727091
0.456,0.004736287
0.457,0.00475468
0.458,0.004770007
0.459,0.004788401
0.46,0.004809859
0.461,0.004831317
0.462,0.004855841
0.463,0.004880365
0.464,0.004904889
0.465,0.004938609
0.466,0.004966198
0.467,0.004999919
0.468,0.005042835
0.469,0.005076556
0.47,0.005119473
0.471,0.005165454
0.472,0.005208372
0.473,0.005266616
0.474,0.005321795
0.475,0.005380039
0.476,0.005447479
0.477,0.005511854
0.478,0.005582361
0.479,0.005658998
0.48,0.0057387
0.481,0.005827599
0.482,0.005919564
0.483,0.006014594
0.484,0.006115754
0.485,0.006223046
0.486,0.006336469
0.487,0.006456023
0.488,0.006581707
0.489,0.006716589
0.49,0.006854536
0.491,0.006998613
0.492,0.007154953
0.493,0.007311293
0.494,0.007479894
0.495,0.007654627
0.496,0.007832425
0.497,0.008022484
0.498,0.00821561
0.499,0.008417931
0.5,0.00862945
0.501,0.008844034
0.502,0.009067814
0.503,0.009297726
0.504,0.009533768
0.505,0.00977594
0.506,0.01003038
0.507,0.01028481
0.508,0.01054844
0.509,0.0108182
0.51,0.0110941
0.511,0.01136999
0.512,0.01166428
0.513,0.01196469
0.514,0.01225592
0.515,0.01255633
0.516,0.01287208
0.517,0.01317863
0.518,0.01349744
0.519,0.01382544
0.52,0.01414732
0.521,0.01448146
0.522,0.01481559
0.523,0.01515893
0.524,0.0154992
0.525,0.01584559
0.526,0.01620119
0.527,0.01655679
0.528,0.01690932
0.529,0.01727718
0.53,0.0176389
0.531,0.01800676
0.532,0.01838075
0.533,0.01875167
0.534,0.01912873
0.535,0.01950885
0.536,0.0198859
0.537,0.02027215
0.538,0.0206584
0.539,0.02104465
0.54,0.0214401
0.541,0.02183248
0.542,0.02222487
0.543,0.02262338
0.544,0.02302802
0.545,0.02342653
0.546,0.02382811
0.547,0.02423582
0.548,0.02464353
0.549,0.02504511
0.55,0.02546201
0.551,0.02587279
0.552,0.02627743
0.553,0.02670047
0.554,0.02711431
0.555,0.02752815
0.556,0.02795425
0.557,0.02837729
0.558,0.02879113
0.559,0.02921723
0.56,0.02964027
0.561,0.03006331
0.562,0.03126909
0.563,0.0316676
0.564,0.03212743
0.565,0.03252594
0.566,0.03298576
0.567,0.03341493
0.568,0.03384409
0.569,0.03430392
0.57,0.03473309
0.571,0.03516225
0.572,0.03562208
0.573,0.03605124
0.574,0.03648041
0.575,0.03694023
0.576,0.03740006
0.577,0.03782922
0.578,0.03828905
0.579,0.03874887
0.58,0.03920869
0.581,0.03963786
0.582,0.04009768
0.583,0.0405575
0.584,0.04098667
0.585,0.04144649
0.586,0.04190632
0.587,0.04236614
0.588,0.04282596
0.589,0.04325513
0.59,0.04371495
0.591,0.04417477
0.592,0.0446346
0.593,0.04509442
0.594,0.04555424
0.595,0.04601406
0.596,0.04647389
0.597,0.04693371
0.598,0.04739353
0.599,0.04785335
0.6,0.04831317
0.601,0.048773
0.602,0.04926347
0.603,0.04972329
0.604,0.05018312
0.605,0.05064294
0.606,0.05110276
0.607,0.05156258
0.608,0.05202241
0.609,0.05251288
0.61,0.0529727
0.611,0.05343253
0.612,0.05392301
0.613,0.05438283
0.614,0.05484265
0.615,0.05533313
0.616,0.05579295
0.617,0.05625277
0.618,0.05674325
0.619,0.05720307
0.62,0.05769355
0.621,0.05815337
0.622,0.05861319
0.623,0.05910368
0.624,0.0595635
0.625,0.06002332
0.626,0.06051379
0.627,0.06097361
0.628,0.0614641
0.629,0.06192392
0.63,0.0624144
0.631,0.06290487
0.632,0.06336469
0.633,0.06382452
0.634,0.06431499
0.635,0.06480547
0.636,0.06526529
0.637,0.06575577
0.638,0.0662156
0.639,0.06670607
0.64,0.0671659
0.641,0.06765637
0.642,0.06814685
0.643,0.06860667
0.644,0.06909715
0.645,0.06958763
0.646,0.0700781
0.647,0.07053792
0.648,0.0710284
0.649,0.07151888
0.65,0.0719787
0.651,0.07246917
0.652,0.07295965
0.653,0.07345013
0.654,0.0739406
0.655,0.07443108
0.656,0.0748909
0.657,0.07538139
0.658,0.07587186
0.659,0.07633169
0.66,0.07685282
0.661,0.07734329
0.662,0.07783377
0.663,0.07832425
0.664,0.07881473
0.665,0.0793052
0.666,0.07979568
0.667,0.08028616
0.668,0.08077663
0.669,0.08126711
0.67,0.08175759
0.671,0.08224807
0.672,0.08270789
0.673,0.08322902
0.674,0.08368885
0.675,0.08420997
0.676,0.0846698
0.677,0.08516028
0.678,0.08565076
0.679,0.08617189
0.68,0.08663171
0.681,0.08712219
0.682,0.08761266
0.683,0.08807249
0.684,0.08856296
0.685,0.08905344
0.686,0.08951326
0.687,0.09000374
0.688,0.09049422
0.689,0.09095404
0.69,0.09141386
0.691,0.09190433
0.692,0.09239481
0.693,0.09285464
0.694,0.09334511
0.695,0.09380494
0.696,0.09426476
0.697,0.09475523
0.698,0.09524571
0.699,0.09570553
0.7,0.09582815
0.6990001,0.09533768
0.6980001,0.09484719
0.6970001,0.09435672
0.6960001,0.0938969
0.6950001,0.09340642
0.6940001,0.09291594
0.6930001,0.09245612
0.6920001,0.09196565
0.6910001,0.09150583
0.6900001,0.09101535
0.6890001,0.09055553
0.6880001,0.0900957
0.6870001,0.08960523
0.6860001,0.08914541
0.6850001,0.08868558
0.6840001,0.08822576
0.6830001,0.08776593
0.6820001,0.08727546
0.6810001,0.08684629
0.6800001,0.08635581
0.6790001,0.08589599
0.6780001,0.08543617
0.6770001,0.08497635
0.6760001,0.08451653
0.6750001,0.0840567
0.6740001,0.08359688
0.6730001,0.08313706
0.6720001,0.08267724
0.6710001,0.08221742
0.6700001,0.08175759
0.6690001,0.08132842
0.6680001,0.08086859
0.6670001,0.08040877
0.6660001,0.07997961
0.6650001,0.07948913
0.6640001,0.07905997
0.6630001,0.07860014
0.6620001,0.07814032
0.6610001,0.0776805
0.6600001,0.07722067
0.6590001,0.07676085
0.6580001,0.07630103
0.6570001,0.07584121
0.6560001,0.07541204
0.6550001,0.07495221
0.6540001,0.07452305
0.6530001,0.07406323
0.6520001,0.07360341
0.6510001,0.07314359
0.6500001,0.07268376
0.6490001,0.07222394
0.6480001,0.07179477
0.6470001,0.07133495
0.6460001,0.07087513
0.6450001,0.0704153
0.6440001,0.06995548
0.6430001,0.06949566
0.6420001,0.06903584
0.6410001,0.06857602
0.6400001,0.06811619
0.6390001,0.06765637
0.6380001,0.06719655
0.6370001,0.06673672
0.6360001,0.0662769
0.6350001,0.06581708
0.6340001,0.06535726
0.6330001,0.06489744
0.6320001,0.06443761
0.6310001,0.06397779
0.6300001,0.06351797
0.6290001,0.06305815
0.6280001,0.06259833
0.6270001,0.0621385
0.6260001,0.06167868
0.6250001,0.06121886
0.6240001,0.06075903
0.6230001,0.06029921
0.6220001,0.05983939
0.6210001,0.05941022
0.6200001,0.0589504
0.6190001,0.05849057
0.6180001,0.05803075
0.6170001,0.05757093
0.6160001,0.05711111
0.6150001,0.05665129
0.6140001,0.05619146
0.6130001,0.0557623
0.6120001,0.05530247
0.6110001,0.05487331
0.6100001,0.05441349
0.6090001,0.05395366
0.6080001,0.05349384
0.6070001,0.05303402
0.6060001,0.05257419
0.6050001,0.05214503
0.6040001,0.0516852
0.6030001,0.05125604
0.6020001,0.05079622
0.6010001,0.05033639
0.6000001,0.04990723
0.5990001,0.0494474
0.5980001,0.04901823
0.5970001,0.04855841
0.5960001,0.04812925
0.5950001,0.04766942
0.5940001,0.04724025
0.5930001,0.04678043
0.5920001,0.04635127
0.5910001,0.04589145
0.5900001,0.04546228
0.5890001,0.04500245
0.5880001,0.04457328
0.5870001,0.04414412
0.5860001,0.0436843
0.5850001,0.04325513
0.5840001,0.04282596
0.5830001,0.04236614
0.5820001,0.04193697
0.5810001,0.0415078
0.5800001,0.04107863
0.5790001,0.04061881
0.5780001,0.0402203
0.5770001,0.03976048
0.5760001,0.03933131
0.5750001,0.03890214
0.5740001,0.03847298
0.5730001,0.03804381
0.5720001,0.03761464
0.5710001,0.03718547
0.5700001,0.03672565
0.5690001,0.03629648
0.5680001,0.03589797
0.5670001,0.0354688
0.5660001,0.03503963
0.5650001,0.03461047
0.5640001,0.0341813
0.5630001,0.03375213
0.5620001,0.03332296
0.5610001,0.03292445
0.5600001,0.03249529
0.5590001,0.03206612
0.5580001,0.0316676
0.5570001,0.03123844
0.5560001,0.03080927
0.5550001,0.03041076
0.5540001,0.02998159
0.5530001,0.02958308
0.5520001,0.02915391
0.5510001,0.02875539
0.5500001,0.02835688
0.5490001,0.02792772
0.5480001,0.0275292
0.5470001,0.02713069
0.5460001,0.02670152
0.5450001,0.02630301
0.5440001,0.0259045
0.5430001,0.02550598
0.5420001,0.02510747
0.5410001,0.02470896
0.5400001,0.02431045
0.5390001,0.02391193
0.5380001,0.02351342
0.5370001,0.02311491
0.5360001,0.02271639
0.5350001,0.02231788
0.5340001,0.02195002
0.5330001,0.02155151
0.5320001,0.021153
0.5310001,0.02078514
0.5300001,0.02041728
0.5290001,0.02001877
0.5280001,0.01965091
0.5270001,0.0192524
0.5260001,0.01888454
0.5250001,0.01851668
0.5240001,0.01814882
0.5230001,0.01778097
0.5220001,0.01741311
0.5210001,0.01704525
0.5200001,0.01670805
0.5190001,0.01634019
0.5180001,0.01597233
0.5170001,0.01560447
0.5160001,0.01526727
0.5150001,0.01489941
0.5140001,0.01453156
0.5130001,0.01419435
0.5120001,0.01385715
0.5110001,0.01348929
0.5100001,0.01315209
0.5090001,0.01233868
0.5080001,0.01200761
0.5070001,0.01168574
0.5060001,0.01135773
0.5050001,0.01103892
0.5040001,0.01072317
0.5030001,0.01040436
0.5020001,0.01009475
0.5010001,0.009785137
0.5000001,0.009478589
0.4990001,0.009175106
0.4980001,0.008877754
0.4970001,0.008583468
0.4960001,0.008292247
0.4950001,0.008004092
0.4940001,0.007722067
0.4930001,0.007440043
0.4920001,0.007161084
0.4910001,0.006891321
0.4900001,0.006621559
0.4890001,0.006357928
0.4880001,0.006097361
0.4870001,0.005839861
0.4860001,0.005591557
0.4850001,0.005343253
0.4840001,0.005098014
0.4830001,0.004865037
0.4820001,0.004628995
0.4810001,0.004399084
0.4800001,0.004175304
0.4790001,0.003951524
0.4780001,0.003740005
0.4770001,0.003531553
0.4760001,0.0033231
0.4750001,0.003126909
0.4740001,0.002927653
0.4730001,0.002734527
0.4720001,0.002553664
0.4710001,0.002366669
0.4700001,0.002195002
0.4690001,0.002026401
0.4680001,0.001860865
0.4670001,0.00170146
0.4660001,0.00154512
0.4650001,0.001394911
0.4640001,0.001250834
0.4630001,0.001078448
0.4620001,0.0009463262
0.4610001,0.0008132842
0.4600001,0.0006857602
0.4590001,0.0005698849
0.4580001,0.0004521704
0.4570001,0.0003408933
0.4560001,0.0002369735
0.4550001,0.0001302947
0.4540001,3.373198E-05
0.4530001,-6.379152E-05
0.4520001,-0.0001550509
0.4510001,-0.0002369606
0.4500001,-0.0003206176
0.4490001,-0.0003985011
0.4480001,-0.0004702334
0.4470001,-0.0005434984
0.4460001,-0.0006078735
0.4450001,-0.0006704094
0.4440001,-0.0007335583
0.4430001,-0.0007881239
0.4420001,-0.0008442223
0.4410001,-0.000896642
0.4400001,-0.0009423177
0.4390001,-0.0009907524
0.4380001,-0.001032136
0.4370001,-0.001072907
0.4360001,-0.001112759
0.4350001,-0.001146785
0.4340001,-0.001182652
0.4330001,-0.001214533
0.4320001,-0.001243961
0.4310001,-0.001275842
0.4300001,-0.001299447
0.4290001,-0.001326729
0.4280001,-0.001352479
0.4270001,-0.001370872
0.4260001,-0.00139417
0.4250001,-0.001414096
0.4240001,-0.001429116
0.4230001,-0.001451188
0.4220001,-0.001466515
0.4210001,-0.001480003
0.4200001,-0.001496864
0.4190001,-0.001507286
0.4180001,-0.001520774
0.4170001,-0.001533036
0.4160001,-0.001542539
0.4150001,-0.001555414
0.4140001,-0.001563078
0.4130001,-0.001571968
0.4120001,-0.001582084
0.4110001,-0.001587908
0.4100001,-0.001602623
0.4090001,-0.001613965
0.4080001,-0.001615191
0.4070001,-0.001622242
0.4060001,-0.001624388
0.4050001,-0.001628679
0.4040001,-0.00163481
0.4030001,-0.001637569
0.4020001,-0.0016437
0.4010001,-0.001647072
0.4000001,-0.001647992
0.3990001,-0.001655349
0.3980001,-0.001656269
0.3970001,-0.00166056
0.3960001,-0.001666998
0.3950001,-0.001665159
0.3940001,-0.00166945
0.3930001,-0.001672822
0.3920001,-0.001671903
0.3910001,-0.001677421
0.3900001,-0.001679873
0.3890001,-0.001679566
0.3880001,-0.001683245
0.3870001,-0.001682632
0.3860001,-0.001684778
0.3850001,-0.001686924
0.3840001,-0.001685391
0.3830001,-0.001689069
0.3820001,-0.001687537
0.3810001,-0.001689989
0.3800001,-0.001692441
0.3790001,-0.001690602
0.3780001,-0.001694587
0.3770001,-0.001694894
0.3760001,-0.001692748
0.3750001,-0.001697346
0.3740001,-0.001694587
0.3730001,-0.0016952
0.3720001,-0.001697959
0.3710001,-0.00169704
0.3700001,-0.001698266
0.3690001,-0.001698266
0.3680001,-0.001695507
0.3670001,-0.001698572
0.3660001,-0.00169704
0.3650001,-0.001696733
0.3640001,-0.001698879
0.3630001,-0.001695813
0.3620001,-0.001696733
0.3610001,-0.00169704
0.3600001,-0.001694894
0.3590001,-0.00169704
0.3580001,-0.001697346
0.3570001,-0.001695507
0.3560001,-0.0016952
0.3550001,-0.001693361
0.3540001,-0.001694587
0.3530001,-0.001693055
0.3520001,-0.001691828
0.3510001,-0.001694894
0.3500001,-0.001691522
0.3490001,-0.001691215
0.3480001,-0.001692135
0.3470001,-0.00168815
0.3460001,-0.001691522
0.3450001,-0.001691828
0.3440001,-0.00168815
0.3430001,-0.001691215
0.3420001,-0.001688456
0.3410001,-0.001687537
