EXPID. 1311
[电化学]: CV : 0 >> 0.7 >> 0 >> 0(V) @ 0.01(V/s) X 10(Seg)
起始电位 (V),0
上限电位 (V),0.7
下限电位 (V),0
终止电位 (V),0
扫速 (V/s),0.01
电解液 信息:
KOH,1
0.001,1.542055E-06
0.002,2.191937E-06
0.003,2.587384E-06
0.004,3.093189E-06
0.005,3.433457E-06
0.006,3.687892E-06
0.007,4.05575E-06
0.008,4.291792E-06
0.009,4.555424E-06
0.01,4.831317E-06
0.011,5.052032E-06
0.012,5.367777E-06
0.013,5.545575E-06
0.014,5.747896E-06
0.015,5.999266E-06
0.016,6.235308E-06
0.017,6.449892E-06
0.018,6.707393E-06
0.019,6.906649E-06
0.02,7.121233E-06
0.021,7.345013E-06
0.022,7.510549E-06
0.023,7.70674E-06
0.024,7.866145E-06
0.025,8.102187E-06
0.026,8.329033E-06
0.027,8.5007E-06
0.028,8.653974E-06
0.029,8.859362E-06
0.03,8.963588E-06
0.031,9.239481E-06
0.032,9.371296E-06
0.033,9.55216E-06
0.034,9.705434E-06
0.035,9.815792E-06
0.036,1.007329E-05
0.037,1.021124E-05
0.038,1.033999E-05
0.039,1.062201E-05
0.04,1.078142E-05
0.041,1.083966E-05
0.042,1.106651E-05
0.043,1.121978E-05
0.044,1.142824E-05
0.045,1.161829E-05
0.046,1.184514E-05
0.047,1.193711E-05
0.048,1.21149E-05
0.049,1.22835E-05
0.05,1.248889E-05
0.051,1.266362E-05
0.052,1.288127E-05
0.053,1.300389E-05
0.054,1.317249E-05
0.055,1.343E-05
0.056,1.351889E-05
0.057,1.368137E-05
0.058,1.393273E-05
0.059,1.406761E-05
0.06,1.430672E-05
0.061,1.44416E-05
0.062,1.45489E-05
0.063,1.48064E-05
0.064,1.498726E-05
0.065,1.512521E-05
0.066,1.529074E-05
0.067,1.543789E-05
0.068,1.559729E-05
0.069,1.579961E-05
0.07,1.591304E-05
0.071,1.610003E-05
0.072,1.625024E-05
0.073,1.641578E-05
0.074,1.659357E-05
0.075,1.671619E-05
0.076,1.690625E-05
0.077,1.703194E-05
0.078,1.720054E-05
0.079,1.746111E-05
0.08,1.752855E-05
0.081,1.766956E-05
0.082,1.78259E-05
0.083,1.801902E-05
0.084,1.823667E-05
0.085,1.838075E-05
0.086,1.846045E-05
0.087,1.869649E-05
0.088,1.880378E-05
0.089,1.896319E-05
0.09,1.92023E-05
0.091,1.930039E-05
0.092,1.950272E-05
0.093,1.964679E-05
0.094,1.9797E-05
0.095,1.999319E-05
0.096,2.01526E-05
0.097,2.022924E-05
0.098,2.037638E-05
0.099,2.046528E-05
0.1,2.063388E-05
0.101,2.074424E-05
0.102,2.094043E-05
0.103,2.104772E-05
0.104,2.11826E-05
0.105,2.124698E-05
0.106,2.144317E-05
0.107,2.163016E-05
0.108,2.185701E-05
0.109,2.195817E-05
0.11,2.209305E-05
0.111,2.233522E-05
0.112,2.246091E-05
0.113,2.258659E-05
0.114,2.275826E-05
0.115,2.290234E-05
0.116,2.310159E-05
0.117,2.32518E-05
0.118,2.327326E-05
0.119,2.348171E-05
0.12,2.391193E-05
0.121,2.397324E-05
0.122,2.412652E-05
0.123,2.421848E-05
0.124,2.440241E-05
0.125,2.458634E-05
0.126,2.46783E-05
0.127,2.486223E-05
0.128,2.504616E-05
0.129,2.519943E-05
0.13,2.532205E-05
0.131,2.544467E-05
0.132,2.568991E-05
0.133,2.578188E-05
0.134,2.59658E-05
0.135,2.611908E-05
0.136,2.627235E-05
0.137,2.639497E-05
0.138,2.654824E-05
0.139,2.667087E-05
0.14,2.679348E-05
0.141,2.694676E-05
0.142,2.694676E-05
0.143,2.7192E-05
0.144,2.731462E-05
0.145,2.734527E-05
0.146,2.755985E-05
0.147,2.762116E-05
0.148,2.783575E-05
0.149,2.798902E-05
0.15,2.811164E-05
0.151,2.826491E-05
0.152,2.841819E-05
0.153,2.854081E-05
0.154,2.872474E-05
0.155,2.88167E-05
0.156,2.906194E-05
0.157,2.915391E-05
0.158,2.930718E-05
0.159,2.946045E-05
0.16,2.961373E-05
0.161,2.9767E-05
0.162,2.988962E-05
0.163,2.995093E-05
0.164,3.019617E-05
0.165,3.031879E-05
0.166,3.03801E-05
0.167,3.062534E-05
0.168,3.068665E-05
0.169,3.080927E-05
0.17,3.096254E-05
0.171,3.096254E-05
0.172,3.117712E-05
0.173,3.123844E-05
0.174,3.129974E-05
0.175,3.151433E-05
0.176,3.16676E-05
0.177,3.172891E-05
0.178,3.194349E-05
0.179,3.203546E-05
0.18,3.221939E-05
0.181,3.243397E-05
0.182,3.255659E-05
0.183,3.277118E-05
0.184,3.280183E-05
0.185,3.292445E-05
0.186,3.313903E-05
0.187,3.329231E-05
0.188,3.341493E-05
0.189,3.350689E-05
0.19,3.366017E-05
0.191,3.38441E-05
0.192,3.396671E-05
0.193,3.411999E-05
0.194,3.430392E-05
0.195,3.442654E-05
0.196,3.454915E-05
0.197,3.470243E-05
0.198,3.473309E-05
0.199,3.494767E-05
0.2,3.500898E-05
0.201,3.507029E-05
0.202,3.525422E-05
0.203,3.540749E-05
0.204,3.562207E-05
0.205,3.571404E-05
0.206,3.5806E-05
0.207,3.598993E-05
0.208,3.614321E-05
0.209,3.629648E-05
0.21,3.64191E-05
0.211,3.660303E-05
0.212,3.67563E-05
0.213,3.694023E-05
0.214,3.703219E-05
0.215,3.721613E-05
0.216,3.727743E-05
0.217,3.749202E-05
0.218,3.77066E-05
0.219,3.779857E-05
0.22,3.79825E-05
0.221,3.816642E-05
0.222,3.828905E-05
0.223,3.850363E-05
0.224,3.868755E-05
0.225,3.881018E-05
0.226,3.902476E-05
0.227,3.914738E-05
0.228,3.936196E-05
0.229,3.954589E-05
0.23,3.966851E-05
0.231,3.991375E-05
0.232,4.000571E-05
0.233,4.025095E-05
0.234,4.043488E-05
0.235,4.052684E-05
0.236,4.077208E-05
0.237,4.092536E-05
0.238,4.113995E-05
0.239,4.135453E-05
0.24,4.15078E-05
0.241,4.163042E-05
0.242,4.190631E-05
0.243,4.209024E-05
0.244,4.236614E-05
0.245,4.255007E-05
0.246,4.267268E-05
0.247,4.297923E-05
0.248,4.313251E-05
0.249,4.328578E-05
0.25,4.356167E-05
0.251,4.368429E-05
0.252,4.399084E-05
0.253,4.414412E-05
0.254,4.43587E-05
0.255,4.454263E-05
0.256,4.478787E-05
0.257,4.49718E-05
0.258,4.521704E-05
0.259,4.540096E-05
0.26,4.56462E-05
0.261,4.586079E-05
0.262,4.604472E-05
0.263,4.635127E-05
0.264,4.650454E-05
0.265,4.671912E-05
0.266,4.696436E-05
0.267,4.717894E-05
0.268,4.742418E-05
0.269,4.766942E-05
0.27,4.782269E-05
0.271,4.812924E-05
0.272,4.837448E-05
0.273,4.858906E-05
0.274,4.889561E-05
0.275,4.907954E-05
0.276,4.935544E-05
0.277,4.963133E-05
0.278,4.984592E-05
0.279,5.021377E-05
0.28,5.042835E-05
0.281,5.070425E-05
0.282,5.094949E-05
0.283,5.128669E-05
0.284,5.159324E-05
0.285,5.183847E-05
0.286,5.220633E-05
0.287,5.248223E-05
0.288,5.275812E-05
0.289,5.303402E-05
0.29,5.340187E-05
0.291,5.361646E-05
0.292,5.401497E-05
0.293,5.426021E-05
0.294,5.459741E-05
0.295,5.496527E-05
0.296,5.524116E-05
0.297,5.557837E-05
0.298,5.594622E-05
0.299,5.619146E-05
0.3,5.662063E-05
0.301,5.695783E-05
0.302,5.720307E-05
0.303,5.763223E-05
0.304,5.793879E-05
0.305,5.83373E-05
0.306,5.86745E-05
0.307,5.907302E-05
0.308,5.944087E-05
0.309,5.983939E-05
0.31,6.02379E-05
0.311,6.054445E-05
0.312,6.091231E-05
0.313,6.134147E-05
0.314,6.173999E-05
0.315,6.210784E-05
0.316,6.259832E-05
0.317,6.296618E-05
0.318,6.339535E-05
0.319,6.385517E-05
0.32,6.425368E-05
0.321,6.468285E-05
0.322,6.514267E-05
0.323,6.554119E-05
0.324,6.609297E-05
0.325,6.652214E-05
0.326,6.69513E-05
0.327,6.750309E-05
0.328,6.793225E-05
0.329,6.842274E-05
0.33,6.894387E-05
0.331,6.940369E-05
0.332,6.992483E-05
0.333,7.04153E-05
0.334,7.087512E-05
0.335,7.148822E-05
0.336,7.194804E-05
0.337,7.240786E-05
0.338,7.2929E-05
0.339,7.345013E-05
0.34,7.406323E-05
0.341,7.45537E-05
0.342,7.507483E-05
0.343,7.568793E-05
0.344,7.61784E-05
0.345,7.685281E-05
0.346,7.74046E-05
0.347,7.798705E-05
0.348,7.863079E-05
0.349,7.933586E-05
0.35,7.985699E-05
0.351,8.050074E-05
0.352,8.114449E-05
0.353,8.175759E-05
0.354,8.243199E-05
0.355,8.304509E-05
0.356,8.381146E-05
0.357,8.436324E-05
0.358,8.512961E-05
0.359,8.580402E-05
0.36,8.644777E-05
0.361,8.712218E-05
0.362,8.788855E-05
0.363,8.8471E-05
0.364,8.923736E-05
0.365,8.991177E-05
0.366,9.058617E-05
0.367,9.132189E-05
0.368,9.19963E-05
0.369,9.270136E-05
0.37,9.349838E-05
0.371,9.417279E-05
0.372,9.493916E-05
0.373,9.573618E-05
0.374,9.637994E-05
0.375,9.720762E-05
0.376,9.788202E-05
0.377,9.867905E-05
0.378,9.950672E-05
0.379,0.0001002118
0.38,0.0001010395
0.381,0.0001018058
0.382,0.0001024802
0.383,0.0001033692
0.384,0.0001041663
0.385,0.0001049633
0.386,0.0001057603
0.387,0.0001065573
0.388,0.0001074463
0.389,0.000108274
0.39,0.0001090404
0.391,0.0001099294
0.392,0.000110757
0.393,0.0001116154
0.394,0.0001125657
0.395,0.0001133627
0.396,0.000114313
0.397,0.0001152327
0.398,0.0001160603
0.399,0.0001170719
0.4,0.0001179303
0.401,0.0001188499
0.402,0.0001198309
0.403,0.0001207505
0.404,0.0001217315
0.405,0.0001226205
0.406,0.0001234788
0.407,0.0001244598
0.408,0.0001253487
0.409,0.0001264217
0.41,0.0001274639
0.411,0.0001283223
0.412,0.0001294258
0.413,0.0001304374
0.414,0.0001314797
0.415,0.0001326753
0.416,0.0001336562
0.417,0.0001347291
0.418,0.0001359247
0.419,0.0001369669
0.42,0.0001381625
0.421,0.0001391741
0.422,0.0001402163
0.423,0.0001414425
0.424,0.0001425768
0.425,0.000143619
0.426,0.0001449678
0.427,0.0001461327
0.428,0.0001475122
0.429,0.0001487997
0.43,0.0001499952
0.431,0.0001514053
0.432,0.0001526929
0.433,0.0001540417
0.434,0.0001553598
0.435,0.000156586
0.436,0.0001581187
0.437,0.0001593756
0.438,0.0001607551
0.439,0.0001622572
0.44,0.0001635753
0.441,0.0001651694
0.442,0.0001668554
0.443,0.0001681735
0.444,0.0001699515
0.445,0.0001715149
0.446,0.000172925
0.447,0.0001749176
0.448,0.0001765116
0.449,0.0001781364
0.45,0.000179945
0.451,0.0001813245
0.452,0.0001832864
0.453,0.0001850337
0.454,0.0001867504
0.455,0.0001888655
0.456,0.0001906742
0.457,0.0001925441
0.458,0.0001947206
0.459,0.0001965599
0.46,0.0001988284
0.461,0.0002007903
0.462,0.0002026909
0.463,0.000204898
0.464,0.0002069519
0.465,0.0002091897
0.466,0.0002115501
0.467,0.0002137879
0.468,0.0002164242
0.469,0.0002185701
0.47,0.0002208998
0.471,0.0002237201
0.472,0.0002260192
0.473,0.0002285635
0.474,0.0002312918
0.475,0.0002335909
0.476,0.0002366564
0.477,0.0002392927
0.478,0.0002418064
0.479,0.0002450252
0.48,0.0002478761
0.481,0.0002509416
0.482,0.0002541603
0.483,0.0002570112
0.484,0.0002604446
0.485,0.0002635714
0.486,0.0002668208
0.487,0.0002705913
0.488,0.0002739633
0.489,0.0002776113
0.49,0.0002814125
0.491,0.0002848151
0.492,0.0002927653
0.493,0.0002958308
0.494,0.0002998159
0.495,0.0003041076
0.496,0.0003080927
0.497,0.0003126909
0.498,0.0003175957
0.499,0.0003215808
0.5,0.0003270987
0.501,0.0003316969
0.502,0.0003366017
0.503,0.0003424261
0.504,0.0003473309
0.505,0.0003531553
0.506,0.0003595928
0.507,0.0003648041
0.508,0.0003715482
0.509,0.0003779857
0.51,0.0003847298
0.511,0.0003920869
0.512,0.0004000572
0.513,0.0004071078
0.514,0.0004156911
0.515,0.0004236614
0.516,0.0004331644
0.517,0.0004420543
0.518,0.0004518639
0.519,0.0004628996
0.52,0.0004730157
0.521,0.0004846645
0.522,0.0004972329
0.523,0.0005094949
0.524,0.0005239027
0.525,0.0005380039
0.526,0.0005533313
0.527,0.000570498
0.528,0.0005873581
0.529,0.0006060576
0.53,0.0006269029
0.531,0.0006477482
0.532,0.000671659
0.533,0.0006958763
0.534,0.0007219329
0.535,0.0007513615
0.536,0.0007807901
0.537,0.0008135908
0.538,0.0008488438
0.539,0.0008859362
0.54,0.0009279333
0.541,0.0009708501
0.542,0.001016832
0.543,0.001068639
0.544,0.001121365
0.545,0.001179609
0.546,0.001241839
0.547,0.001306827
0.548,0.001379172
0.549,0.00145397
0.55,0.001534899
0.551,0.001621652
0.552,0.001711777
0.553,0.001809566
0.554,0.001913486
0.555,0.002020778
0.556,0.002137879
0.557,0.002259272
0.558,0.002387103
0.559,0.002522904
0.56,0.00266269
0.561,0.002811979
0.562,0.002967092
0.563,0.003160629
0.564,0.003326165
0.565,0.003500898
0.566,0.003681761
0.567,0.003871821
0.568,0.004068012
0.569,0.004270334
0.57,0.004481852
0.571,0.004696436
0.572,0.004920216
0.573,0.005143996
0.574,0.005376973
0.575,0.005619146
0.576,0.00586745
0.577,0.00611882
0.578,0.00637632
0.579,0.006636886
0.58,0.006906649
0.581,0.007179477
0.582,0.007458436
0.583,0.007743525
0.584,0.008028615
0.585,0.008319836
0.586,0.008617188
0.587,0.008914541
0.588,0.009221088
0.589,0.009527637
0.59,0.009840316
0.591,0.01015913
0.592,0.01047487
0.593,0.01079981
0.594,0.01112782
0.595,0.01145582
0.596,0.01179303
0.597,0.01212717
0.598,0.01246743
0.599,0.01281077
0.6,0.0131541
0.601,0.0135005
0.602,0.01385303
0.603,0.01420556
0.604,0.01456116
0.605,0.01491675
0.606,0.01528155
0.607,0.01564327
0.608,0.016005
0.609,0.01637592
0.61,0.01674378
0.611,0.01711164
0.612,0.01748869
0.613,0.01785962
0.614,0.01823667
0.615,0.01862292
0.616,0.01899998
0.617,0.01938316
0.618,0.01976941
0.619,0.02014953
0.62,0.02053885
0.621,0.0209251
0.622,0.02131442
0.623,0.0217068
0.624,0.02209918
0.625,0.02249463
0.626,0.02288701
0.627,0.02328246
0.628,0.02368404
0.629,0.02407335
0.63,0.02447493
0.631,0.02487651
0.632,0.02527196
0.633,0.0256766
0.634,0.02607818
0.635,0.02647362
0.636,0.02688133
0.637,0.02728291
0.638,0.02768142
0.639,0.0280922
0.64,0.02849378
0.641,0.02889536
0.642,0.02930306
0.643,0.02970771
0.644,0.03012155
0.645,0.03129975
0.646,0.03169826
0.647,0.03209677
0.648,0.03252594
0.649,0.03295511
0.65,0.03335362
0.651,0.03378279
0.652,0.03421196
0.653,0.03461047
0.654,0.03503963
0.655,0.0354688
0.656,0.03589797
0.657,0.03632713
0.658,0.0367563
0.659,0.03718547
0.66,0.03761464
0.661,0.03804381
0.662,0.03847298
0.663,0.0389328
0.664,0.03933131
0.665,0.03979113
0.666,0.0402203
0.667,0.04064947
0.668,0.04107863
0.669,0.0415078
0.67,0.04196763
0.671,0.0423968
0.672,0.04282596
0.673,0.04328578
0.674,0.04371495
0.675,0.04414412
0.676,0.04460394
0.677,0.04500245
0.678,0.04546228
0.679,0.0459221
0.68,0.04635127
0.681,0.04678043
0.682,0.04724025
0.683,0.04766942
0.684,0.04809859
0.685,0.04855841
0.686,0.04898758
0.687,0.0494474
0.688,0.04990723
0.689,0.05033639
0.69,0.05076556
0.691,0.05122538
0.692,0.0516852
0.693,0.05211437
0.694,0.05257419
0.695,0.05300336
0.696,0.05346319
0.697,0.05392301
0.698,0.05435218
0.699,0.054812
0.7,0.05493462
0.6990001,0.0545361
0.6980001,0.05413759
0.6970001,0.05370842
0.6960001,0.05330991
0.6950001,0.05288074
0.6940001,0.05248223
0.6930001,0.05208372
0.6920001,0.05165455
0.6910001,0.05122538
0.6900001,0.05082687
0.6890001,0.05042836
0.6880001,0.05002984
0.6870001,0.04963133
0.6860001,0.04920216
0.6850001,0.04880365
0.6840001,0.04837449
0.6830001,0.04797597
0.6820001,0.04757746
0.6810001,0.04714829
0.6800001,0.04678043
0.6790001,0.04635127
0.6780001,0.04595275
0.6770001,0.04555424
0.6760001,0.04512507
0.6750001,0.04472656
0.6740001,0.04432805
0.6730001,0.04392953
0.6720001,0.04350037
0.6710001,0.04310185
0.6700001,0.04270334
0.6690001,0.04230483
0.6680001,0.04190632
0.6670001,0.0415078
0.6660001,0.04110929
0.6650001,0.04068012
0.6640001,0.04028161
0.6630001,0.0398831
0.6620001,0.03948459
0.6610001,0.03908607
0.6600001,0.03868756
0.6590001,0.03828905
0.6580001,0.03789053
0.6570001,0.03749202
0.6560001,0.03709351
0.6550001,0.036695
0.6540001,0.03629648
0.6530001,0.03592863
0.6520001,0.03549946
0.6510001,0.0351316
0.6500001,0.03473309
0.6490001,0.03433457
0.6480001,0.03396672
0.6470001,0.0335682
0.6460001,0.03316969
0.6450001,0.03280183
0.6440001,0.03240332
0.6430001,0.03200481
0.6420001,0.03163695
0.6410001,0.03123844
0.6400001,0.03087058
0.6390001,0.03047206
0.6380001,0.03007355
0.6370001,0.02970569
0.6360001,0.02930718
0.6350001,0.02893933
0.6340001,0.02854081
0.6330001,0.02817295
0.6320001,0.0278051
0.6310001,0.02743724
0.6300001,0.02703872
0.6290001,0.02667087
0.6280001,0.02630301
0.6270001,0.0259045
0.6260001,0.02553664
0.6250001,0.02516878
0.6240001,0.02480092
0.6230001,0.02443307
0.6220001,0.02406521
0.6210001,0.02369735
0.6200001,0.02336015
0.6190001,0.02299229
0.6180001,0.02262443
0.6170001,0.02225657
0.6160001,0.02188871
0.6150001,0.02152086
0.6140001,0.02118365
0.6130001,0.0208158
0.6120001,0.02044794
0.6110001,0.02011073
0.6100001,0.01977353
0.6090001,0.01940567
0.6080001,0.01906847
0.6070001,0.01873127
0.6060001,0.01839406
0.6050001,0.01805686
0.6040001,0.01771966
0.6030001,0.0173518
0.6020001,0.0170146
0.6010001,0.01670805
0.6000001,0.01637085
0.5990001,0.01603364
0.5980001,0.01569644
0.5970001,0.01535923
0.5960001,0.01505269
0.5950001,0.01474614
0.5940001,0.01440894
0.5930001,0.01407173
0.5920001,0.01376519
0.5910001,0.01345864
0.5900001,0.01315209
0.5890001,0.01235401
0.5880001,0.01204746
0.5870001,0.01175011
0.5860001,0.01145276
0.5850001,0.01115847
0.5840001,0.01086725
0.5830001,0.0105791
0.5820001,0.01029094
0.5810001,0.01000585
0.5800001,0.009726893
0.5790001,0.009450999
0.5780001,0.009172041
0.5770001,0.008905343
0.5760001,0.008635581
0.5750001,0.008368884
0.5740001,0.008111384
0.5730001,0.007853882
0.5720001,0.007596382
0.5710001,0.007348078
0.5700001,0.007099774
0.5690001,0.006854536
0.5680001,0.006618494
0.5670001,0.006382451
0.5660001,0.006149475
0.5650001,0.005922629
0.5640001,0.005698849
0.5630001,0.005478134
0.5620001,0.005260485
0.5610001,0.005052032
0.5600001,0.004846645
0.5590001,0.004644323
0.5580001,0.004448132
0.5570001,0.004255007
0.5560001,0.004064947
0.5550001,0.003884083
0.5540001,0.00370322
0.5530001,0.003528487
0.5520001,0.003362951
0.5510001,0.003197415
0.5500001,0.003034944
0.5490001,0.00288167
0.5480001,0.002731462
0.5470001,0.002587384
0.5460001,0.002446372
0.5450001,0.00231149
0.5440001,0.002179675
0.5430001,0.00205399
0.5420001,0.001934436
0.5410001,0.001821013
0.5400001,0.001710656
0.5390001,0.001603364
0.5380001,0.001502203
0.5370001,0.001404108
0.5360001,0.001312143
0.5350001,0.001192178
0.5340001,0.001109716
0.5330001,0.00103032
0.5320001,0.0009530703
0.5310001,0.0008816445
0.5300001,0.0008138973
0.5290001,0.0007489091
0.5280001,0.0006894387
0.5270001,0.000630888
0.5260001,0.0005772421
0.5250001,0.0005269682
0.5240001,0.0004791466
0.5230001,0.0004346971
0.5220001,0.0003933131
0.5210001,0.0003540749
0.5200001,0.0003185153
0.5190001,0.0002838754
0.5180001,0.0002523009
0.5170001,0.0002234854
0.5160001,0.0001955895
0.5150001,0.0001710656
0.5140001,0.0001474614
0.5130001,0.0001253899
0.5120001,0.0001048512
0.5110001,8.21561E-05
0.5100001,6.630756E-05
0.5090001,5.110276E-05
0.5080001,3.586731E-05
0.5070001,2.348276E-05
0.5060001,1.112887E-05
0.5050001,-4.893099E-07
0.5040001,-9.440519E-06
0.5030001,-1.94953E-05
0.5020001,-2.786407E-05
0.5010001,-3.509861E-05
0.5000001,-4.282362E-05
0.4990001,-4.886262E-05
0.4980001,-5.419656E-05
0.4970001,-5.977574E-05
0.4960001,-6.366891E-05
0.4950001,-6.838975E-05
0.4940001,-7.216029E-05
0.4930001,-7.525643E-05
0.4920001,-7.85365E-05
0.4910001,-8.086627E-05
0.4900001,-8.295078E-05
0.4890001,-8.52499E-05
0.4880001,-8.64761E-05
0.4870001,-8.828473E-05
0.4860001,-8.951092E-05
0.4850001,-9.039991E-05
0.4840001,-9.168741E-05
0.4830001,-9.205527E-05
0.4820001,-9.254575E-05
0.4810001,-9.325081E-05
0.4800001,-9.31895E-05
0.4790001,-9.374129E-05
0.4780001,-9.374129E-05
0.4770001,-9.322015E-05
0.4760001,-9.38026E-05
0.4750001,-9.303623E-05
0.4740001,-9.276033E-05
0.4730001,-9.297491E-05
0.4720001,-9.187134E-05
0.4710001,-9.171807E-05
0.4700001,-9.122759E-05
0.4690001,-9.030795E-05
0.4680001,-9.009337E-05
0.4670001,-8.941896E-05
0.4660001,-8.849931E-05
0.4650001,-8.81008E-05
0.4640001,-8.690526E-05
0.4630001,-8.638413E-05
0.4620001,-8.5863E-05
0.4610001,-8.503532E-05
0.4600001,-8.451418E-05
0.4590001,-8.33493E-05
0.4580001,-8.252162E-05
0.4570001,-8.20618E-05
0.4560001,-8.080495E-05
0.4550001,-8.025316E-05
0.4540001,-7.951745E-05
0.4530001,-7.835257E-05
0.4520001,-7.789274E-05
0.4510001,-7.681982E-05
0.4500001,-7.583887E-05
0.4490001,-7.513381E-05
0.4480001,-7.409155E-05
0.4470001,-7.335583E-05
0.4460001,-7.25588E-05
0.4450001,-7.145523E-05
0.4440001,-7.087279E-05
0.4430001,-6.989183E-05
0.4420001,-6.900284E-05
0.4410001,-6.832844E-05
0.4400001,-6.719421E-05
0.4390001,-6.648915E-05
0.4380001,-6.58454E-05
0.4370001,-6.480313E-05
0.4360001,-6.419003E-05
0.4350001,-6.330105E-05
0.4340001,-6.241206E-05
0.4330001,-6.17683E-05
0.4320001,-6.072604E-05
0.4310001,-6.017425E-05
0.4300001,-5.931592E-05
0.4290001,-5.845758E-05
0.4280001,-5.793645E-05
0.4270001,-5.704746E-05
0.4260001,-5.628109E-05
0.4250001,-5.563734E-05
0.4240001,-5.471769E-05
0.4230001,-5.395133E-05
0.4220001,-5.336888E-05
0.4210001,-5.244924E-05
0.4200001,-5.195876E-05
0.4190001,-5.12537E-05
0.4180001,-5.048733E-05
0.4170001,-4.99662E-05
0.4160001,-4.929179E-05
0.4150001,-4.870935E-05
0.4140001,-4.80656E-05
0.4130001,-4.732988E-05
0.4120001,-4.699268E-05
0.4110001,-4.631827E-05
0.4100001,-4.585845E-05
0.4090001,-4.530666E-05
0.4080001,-4.450964E-05
0.4070001,-4.404982E-05
0.4060001,-4.352869E-05
0.4050001,-4.285428E-05
0.4040001,-4.245577E-05
0.4030001,-4.190398E-05
0.4020001,-4.135219E-05
0.4010001,-4.089237E-05
0.4000001,-4.018731E-05
0.3990001,-3.981945E-05
0.3980001,-3.929832E-05
0.3970001,-3.874653E-05
0.3960001,-3.840933E-05
0.3950001,-3.779623E-05
0.3940001,-3.730575E-05
0.3930001,-3.696855E-05
0.3920001,-3.644742E-05
0.3910001,-3.614087E-05
0.3900001,-3.571171E-05
0.3890001,-3.531319E-05
0.3880001,-3.497599E-05
