EXPID. 1169
[电化学]: i-t : @ 0(V) X 600(sec)
起始电位 (V),0
静置时间 (秒),0
运行时间 (秒),600
记录间隔,0.1
电解液 信息:
HNO3,0.4
0.1,-0.002227691
0.2,-0.002066185
0.3,-0.001835214
0.4,-0.001646043
0.5,-0.001499977
0.6,-0.001384012
0.7,-0.001289987
0.8000001,-0.001212374
0.9000001,-0.001146462
1,-0.001090564
1.1,-0.001042396
1.2,-0.0009999113
1.3,-0.0009621931
1.4,-0.0009288794
1.5,-0.0008991706
1.6,-0.0008712614
1.7,-0.0008473065
1.8,-0.0008242963
1.9,-0.000803389
2,-0.0007847266
2.1,-0.0007665211
2.2,-0.00075036
2.3,-0.0007350541
2.4,-0.0007205815
2.5,-0.0007072137
2.6,-0.0006943478
2.7,-0.0006822775
2.799999,-0.000670844
2.899999,-0.0006601413
2.999999,-0.0006500986
3.099999,-0.0006402829
3.199999,-0.0006309664
3.299999,-0.0006221772
3.399999,-0.0006137177
3.499999,-0.0006056696
3.599999,-0.0005980218
3.699999,-0.0005905181
3.799999,-0.0005833845
3.899998,-0.0005767104
3.999998,-0.0005701334
4.099998,-0.0005636242
4.199998,-0.0005576941
4.299998,-0.0005517414
4.399998,-0.0005460043
4.499998,-0.0005407579
4.599998,-0.000535327
4.699998,-0.0005302548
4.799998,-0.0005254059
4.899998,-0.000520394
4.999998,-0.0005157559
5.099998,-0.0005112488
5.199997,-0.0005067106
5.299997,-0.0005024606
5.399997,-0.0004983575
5.499997,-0.0004941206
5.599997,-0.0004903198
5.699997,-0.000486518
5.799997,-0.0004826098
5.899997,-0.0004789163
5.999997,-0.0004753942
6.099997,-0.0004716979
6.199996,-0.0004683642
6.299996,-0.0004651944
6.399996,-0.0004618701
6.499996,-0.0004588801
6.599996,-0.0004556904
6.699996,-0.0004525554
6.799996,-0.00044962
6.899996,-0.0004467864
6.999996,-0.0004437944
7.099996,-0.0004411294
7.199996,-0.0004383927
7.299995,-0.0004356014
7.399995,-0.0004330173
7.499995,-0.0004305057
7.599995,-0.000427851
7.699995,-0.0004254722
7.799995,-0.0004230048
7.899995,-0.0004206034
7.999995,-0.0004183159
8.099995,-0.0004160209
8.199995,-0.0004137862
8.299995,-0.0004114959
8.399996,-0.0004093243
8.499996,-0.0004071187
8.599997,-0.000404998
8.699997,-0.0004028612
8.799997,-0.0004007074
8.899998,-0.0003987693
8.999998,-0.0003966853
9.099998,-0.0003947679
9.199999,-0.0003927658
9.299999,-0.0003909134
9.4,-0.0003891948
9.5,-0.0003872312
9.6,-0.0003854043
9.700001,-0.0003836489
9.800001,-0.0003818907
9.900002,-0.0003801551
10,-0.0003783893
10.1,-0.0003766754
10.2,-0.000375066
10.3,-0.000373384
10.4,-0.0003716418
10.5,-0.0003700522
10.6,-0.0003685313
10.7,-0.0003669002
10.8,-0.0003653417
10.90001,-0.0003638038
11.00001,-0.0003622565
11.10001,-0.0003608515
11.20001,-0.000359356
11.30001,-0.0003579142
11.40001,-0.000356479
11.50001,-0.0003550768
11.60001,-0.0003536331
11.70001,-0.0003523401
11.80001,-0.000350904
11.90001,-0.0003496194
12.00001,-0.0003483001
12.10001,-0.0003468847
12.20001,-0.0003456086
12.30001,-0.0003443297
12.40001,-0.0003430556
12.50001,-0.0003417428
12.60001,-0.0003405195
12.70001,-0.0003392472
12.80001,-0.0003380475
12.90001,-0.0003368816
13.00001,-0.0003356639
13.10001,-0.0003344284
13.20001,-0.0003333115
13.30001,-0.0003322078
13.40001,-0.0003310438
13.50002,-0.0003298619
13.60002,-0.0003287507
13.70002,-0.0003276658
13.80002,-0.0003264623
13.90002,-0.0003253896
14.00002,-0.0003243292
14.10002,-0.0003231615
14.20002,-0.0003221218
14.30002,-0.0003211311
14.40002,-0.0003199888
14.50002,-0.0003188964
14.60002,-0.0003179481
14.70002,-0.0003167558
14.80002,-0.0003158772
14.90002,-0.000314911
15.00002,-0.0003137988
15.10002,-0.0003128392
15.20002,-0.0003119125
15.30002,-0.0003109209
15.40002,-0.0003099217
15.50002,-0.0003090478
15.60002,-0.0003080411
15.70002,-0.0003071699
15.80002,-0.0003062772
15.90002,-0.0003053138
16.00002,-0.0003044851
16.10003,-0.0003035622
16.20003,-0.0003027401
16.30003,-0.0003017814
16.40003,-0.0003009602
16.50003,-0.0002999761
16.60003,-0.0002991285
16.70003,-0.0002982094
16.80003,-0.0002974447
16.90003,-0.0002965717
17.00003,-0.0002957515
17.10003,-0.0002948992
17.20003,-0.0002940837
17.30003,-0.0002932333
17.40003,-0.0002924507
17.50003,-0.0002916342
17.60003,-0.0002908328
17.70003,-0.0002900483
17.80003,-0.0002891951
17.90003,-0.0002884512
18.00003,-0.0002876855
18.10003,-0.0002868295
18.20003,-0.0002861647
18.30003,-0.0002854339
18.40003,-0.0002846296
18.50003,-0.0002839648
18.60003,-0.0002831973
18.70004,-0.0002824119
18.80004,-0.0002817602
18.90004,-0.0002810379
19.00004,-0.0002801875
19.10004,-0.000279565
19.20004,-0.0002789463
19.30004,-0.0002781335
19.40004,-0.000277415
19.50004,-0.0002768245
19.60004,-0.0002761173
19.70004,-0.0002754383
19.80004,-0.0002747301
19.90004,-0.0002739513
20.00004,-0.0002733025
20.10004,-0.0002726602
20.20004,-0.0002719304
20.30004,-0.0002712872
20.40004,-0.0002706948
20.50004,-0.0002699876
20.60004,-0.0002693576
20.70004,-0.0002686918
20.80004,-0.0002680533
20.90004,-0.0002673818
21.00004,-0.0002667602
21.10004,-0.0002661152
21.20004,-0.0002654428
21.30005,-0.0002648928
21.40005,-0.0002642646
21.50005,-0.0002636488
21.60005,-0.0002630197
21.70005,-0.0002624405
21.80005,-0.0002618115
21.90005,-0.0002612248
22.00005,-0.0002606569
22.10005,-0.0002600212
22.20005,-0.0002594694
22.30005,-0.000258893
22.40005,-0.0002582979
22.50005,-0.0002577253
22.60005,-0.0002571819
22.70005,-0.0002565237
22.80005,-0.0002559322
22.90005,-0.0002554002
23.00005,-0.0002548681
23.10005,-0.0002542899
23.20005,-0.0002537333
23.30005,-0.0002531607
23.40005,-0.0002526428
23.50005,-0.0002521248
23.60005,-0.0002515579
23.70005,-0.0002510164
23.80005,-0.0002504617
23.90005,-0.0002499579
24.00006,-0.0002494117
24.10006,-0.0002489154
24.20006,-0.000248276
24.30006,-0.0002477872
24.40006,-0.000247306
24.50006,-0.0002467353
24.60006,-0.000246271
24.70006,-0.0002457644
24.80006,-0.0002451946
24.90006,-0.0002447266
25.00006,-0.0002442388
25.10006,-0.0002436379
25.20006,-0.0002431642
25.30006,-0.0002426774
25.40006,-0.0002421538
25.50006,-0.0002417272
25.60006,-0.0002412572
25.70006,-0.0002406856
25.80006,-0.0002403108
25.90006,-0.0002397863
26.00006,-0.0002392466
26.10006,-0.0002388097
26.20006,-0.0002382851
26.30006,-0.0002377785
26.40006,-0.0002373519
26.50006,-0.0002368292
26.60007,-0.000236332
26.70007,-0.0002359233
26.80007,-0.0002354449
26.90007,-0.000235007
27.00007,-0.0002345851
27.10007,-0.0002341679
27.20007,-0.0002337667
27.30007,-0.0002332676
27.40007,-0.0002327977
27.50007,-0.0002323466
27.60007,-0.0002319548
27.70007,-0.0002314905
27.80007,-0.0002310056
27.90007,-0.0002305648
28.00007,-0.0002301458
28.10007,-0.000229673
28.20007,-0.000229269
28.30007,-0.0002288123
28.40007,-0.0002283828
28.50007,-0.0002279788
28.60007,-0.0002275381
28.70007,-0.0002271134
28.80007,-0.0002267094
28.90007,-0.0002263459
29.00007,-0.0002260144
29.10007,-0.0002256405
29.20008,-0.0002252648
29.30008,-0.0002248796
29.40008,-0.0002244323
29.50008,-0.0002241206
29.60008,-0.0002237071
29.70008,-0.0002232297
29.80008,-0.0002229133
29.90008,-0.0002224556
30.00008,-0.000221963
30.10008,-0.0002216476
30.20008,-0.0002212605
30.30008,-0.0002208461
30.40008,-0.0002204619
30.50008,-0.0002200673
30.60008,-0.0002195824
30.70008,-0.0002192876
30.80008,-0.0002188921
30.90008,-0.0002184297
31.00008,-0.0002180803
31.10008,-0.0002177158
31.20008,-0.0002173278
31.30008,-0.0002170585
31.40008,-0.0002166074
31.50008,-0.0002161799
31.60008,-0.0002158493
31.70008,-0.0002155207
31.80009,-0.0002151242
31.90009,-0.0002147814
32.00008,-0.0002144433
32.10008,-0.0002140779
32.20008,-0.0002137229
32.30008,-0.0002133688
32.40008,-0.0002129592
32.50008,-0.000212655
32.60007,-0.0002122566
32.70007,-0.0002118922
32.80007,-0.0002115456
32.90007,-0.0002111831
33.00007,-0.0002107809
33.10007,-0.0002104833
33.20007,-0.0002100709
33.30006,-0.000209713
33.40006,-0.0002093862
33.50006,-0.0002090491
33.60006,-0.000208712
33.70006,-0.0002084153
33.80006,-0.000208016
33.90005,-0.0002076845
34.00005,-0.0002073888
34.10005,-0.0002070149
34.20005,-0.0002066571
34.30005,-0.0002064603
34.40005,-0.0002060968
34.50005,-0.0002057653
34.60004,-0.0002054036
34.70004,-0.0002050533
34.80004,-0.0002048207
34.90004,-0.0002044073
35.00004,-0.0002040579
35.10004,-0.0002037358
35.20004,-0.0002033827
35.30003,-0.000203119
35.40003,-0.0002028704
35.50003,-0.0002025201
35.60003,-0.0002021867
35.70003,-0.0002018665
35.80003,-0.0002015651
35.90002,-0.0002012186
36.00002,-0.0002009841
36.10002,-0.0002006328
36.20002,-0.0002003352
36.30002,-0.0002000631
36.40002,-0.0001997476
36.50002,-0.0001994905
36.60001,-0.000199191
36.70001,-0.0001988746
36.80001,-0.0001986053
36.90001,-0.0001983247
37.00001,-0.0001979932
37.10001,-0.000197721
37.2,-0.0001974027
37.3,-0.0001971079
37.4,-0.000196817
37.5,-0.0001965212
37.6,-0.000196202
37.7,-0.0001959468
37.8,-0.0001956935
37.89999,-0.0001953695
37.99999,-0.0001950681
38.09999,-0.0001947875
38.19999,-0.0001945069
38.29999,-0.0001941961
38.39999,-0.000193939
38.49998,-0.0001936395
38.59998,-0.0001933617
38.69998,-0.000193131
38.79998,-0.0001928277
38.89998,-0.0001925434
38.99998,-0.0001922684
39.09998,-0.0001919472
39.19997,-0.0001916939
39.29997,-0.0001913681
39.39997,-0.000191062
39.49997,-0.0001908709
39.59997,-0.0001906251
39.69997,-0.0001903595
39.79996,-0.0001900515
39.89996,-0.0001897492
39.99996,-0.000189511
40.09996,-0.0001892482
40.19996,-0.0001889554
40.29996,-0.0001886945
40.39996,-0.0001884525
40.49995,-0.0001882189
40.59995,-0.0001879242
40.69995,-0.0001876577
40.79995,-0.0001874043
40.89995,-0.0001871708
40.99995,-0.0001868873
41.09995,-0.0001866217
41.19994,-0.0001864127
41.29994,-0.0001861415
41.39994,-0.0001859239
41.49994,-0.0001856499
41.59994,-0.0001853466
41.69994,-0.0001851197
41.79993,-0.0001849247
41.89993,-0.000184613
41.99993,-0.0001843578
42.09993,-0.0001841723
42.19993,-0.0001838964
42.29993,-0.0001837391
42.39993,-0.0001835131
42.49992,-0.0001831873
42.59992,-0.0001829217
42.69992,-0.0001827089
42.79992,-0.0001824235
42.89992,-0.0001822389
42.99992,-0.0001820261
43.09991,-0.0001817389
43.19991,-0.000181559
43.29991,-0.0001813151
43.39991,-0.0001810194
43.49991,-0.0001807868
43.59991,-0.0001805287
43.69991,-0.0001802331
43.7999,-0.0001800541
43.8999,-0.0001798243
43.9999,-0.0001795767
44.0999,-0.0001794232
44.1999,-0.0001791906
44.2999,-0.000178941
44.39989,-0.000178699
44.49989,-0.000178456
44.59989,-0.0001781914
44.69989,-0.0001779606
44.79989,-0.0001777685
44.89989,-0.0001775237
44.99989,-0.000177259
45.09988,-0.0001770858
45.19988,-0.000176856
45.29988,-0.0001766422
45.39988,-0.0001764181
45.49988,-0.0001762806
45.59988,-0.0001759971
45.69987,-0.0001757504
45.79987,-0.0001755225
45.89987,-0.0001752692
45.99987,-0.0001750752
46.09987,-0.0001748925
46.19987,-0.0001746392
46.29987,-0.0001744395
46.39986,-0.0001742389
46.49986,-0.0001740148
46.59986,-0.0001737963
46.69986,-0.0001736145
46.79986,-0.0001733763
46.89986,-0.0001732002
46.99986,-0.0001729327
47.09985,-0.0001727199
47.19985,-0.0001726333
47.29985,-0.0001723818
47.39985,-0.0001720899
47.49985,-0.000171878
47.59985,-0.0001716944
47.69984,-0.0001714768
47.79984,-0.0001713139
47.89984,-0.0001710992
47.99984,-0.0001708139
48.09984,-0.0001706227
48.19984,-0.0001704089
48.29984,-0.0001701735
48.39983,-0.000169971
48.49983,-0.0001697554
48.59983,-0.0001695783
48.69983,-0.0001695378
48.79983,-0.0001693504
48.89983,-0.0001690914
48.99982,-0.0001688522
49.09982,-0.0001686582
49.19982,-0.0001684435
49.29982,-0.000168225
49.39982,-0.0001680612
49.49982,-0.000167822
49.59982,-0.0001676826
49.69981,-0.0001674754
49.79981,-0.0001671703
49.89981,-0.0001670413
49.99981,-0.0001668134
50.09981,-0.0001665949
50.19981,-0.0001664743
50.2998,-0.0001662935
50.3998,-0.0001661118
50.4998,-0.0001658434
50.5998,-0.0001656777
50.6998,-0.0001655345
50.7998,-0.0001652567
50.8998,-0.0001651201
50.99979,-0.0001649516
51.09979,-0.000164719
51.19979,-0.0001645655
51.29979,-0.0001643668
51.39979,-0.0001641596
51.49979,-0.0001639759
51.59978,-0.0001637989
51.69978,-0.0001636247
51.79978,-0.0001635117
51.89978,-0.0001633243
51.99978,-0.0001630596
52.09978,-0.0001629589
52.19978,-0.0001628459
52.29977,-0.0001625473
52.39977,-0.0001624145
52.49977,-0.0001622366
52.59977,-0.000162035
52.69977,-0.0001619418
52.79977,-0.0001617243
52.89977,-0.0001614766
52.99976,-0.0001613899
53.09976,-0.000161244
53.19976,-0.0001609963
53.29976,-0.0001608532
53.39976,-0.0001606997
53.49976,-0.0001604944
53.59975,-0.0001603606
53.69975,-0.0001601817
53.79975,-0.0001599548
53.89975,-0.0001598135
53.99975,-0.000159643
54.09975,-0.0001594679
54.19975,-0.0001592871
54.29974,-0.0001591044
54.39974,-0.0001589424
54.49974,-0.0001587672
54.59974,-0.0001586326
54.69974,-0.0001584734
54.79974,-0.0001582455
54.89973,-0.0001580722
54.99973,-0.0001579498
55.09973,-0.0001577812
55.19973,-0.0001576117
55.29973,-0.0001574036
55.39973,-0.0001572444
55.49973,-0.0001570815
55.59972,-0.0001568988
55.69972,-0.0001567566
55.79972,-0.0001565146
55.89972,-0.0001563413
55.99972,-0.0001562274
56.09972,-0.0001560315
56.19971,-0.0001558526
56.29971,-0.0001557057
56.39971,-0.0001555531
56.49971,-0.0001554034
56.59971,-0.0001551981
56.69971,-0.0001550709
56.79971,-0.0001549202
56.8997,-0.000154714
56.9997,-0.000154585
57.0997,-0.0001544155
57.1997,-0.0001542431
57.2997,-0.0001541706
57.3997,-0.0001539804
57.49969,-0.000153792
57.59969,-0.0001536593
57.69969,-0.000153487
57.79969,-0.0001532797
57.89969,-0.0001531197
57.99969,-0.0001529822
58.09969,-0.0001528126
58.19968,-0.0001527317
58.29968,-0.0001526177
58.39968,-0.0001524539
58.49968,-0.0001523041
58.59968,-0.0001521892
58.69968,-0.000152096
58.79967,-0.0001519406
58.89967,-0.0001517673
58.99967,-0.0001515526
59.09967,-0.0001513172
59.19967,-0.0001512136
59.29967,-0.0001510827
59.39967,-0.0001508548
59.49966,-0.0001508162
59.59966,-0.000150689
59.69966,-0.0001504621
59.79966,-0.0001503387
59.89966,-0.0001502191
59.99966,-0.0001499714
60.09966,-0.0001498839
60.19965,-0.0001497793
60.29965,-0.0001495731
60.39965,-0.0001494761
60.49965,-0.000149365
60.59965,-0.0001491644
60.69965,-0.00014901
60.79964,-0.0001489054
60.89964,-0.0001487265
60.99964,-0.0001485965
61.09964,-0.0001484505
61.19964,-0.0001482895
61.29964,-0.0001481407
61.39964,-0.0001479656
61.49963,-0.0001478846
61.59963,-0.0001478412
61.69963,-0.0001476925
61.79963,-0.0001475192
61.89963,-0.0001473318
61.99963,-0.0001472367
62.09962,-0.0001470455
62.19962,-0.0001468562
62.29962,-0.0001467159
62.39962,-0.0001465577
62.49962,-0.000146406
62.59962,-0.0001463091
62.69962,-0.0001461443
62.79961,-0.0001460256
62.89961,-0.0001458749
62.99961,-0.0001457619
63.09961,-0.0001456009
63.19961,-0.0001455114
63.29961,-0.0001453796
63.3996,-0.0001452214
63.4996,-0.0001450622
63.5996,-0.000144953
63.6996,-0.0001447618
63.7996,-0.0001447495
63.8996,-0.0001445141
63.9996,-0.0001442985
64.09959,-0.0001442156
64.19959,-0.0001440997
64.29959,-0.0001438907
64.39959,-0.0001438973
64.49959,-0.0001437551
64.59959,-0.0001435648
64.69958,-0.0001435178
64.79958,-0.0001433539
64.89958,-0.0001431627
64.99958,-0.0001430271
65.09958,-0.000142868
65.19958,-0.0001427578
65.29958,-0.0001425864
65.39957,-0.0001424555
65.49957,-0.0001422822
65.59957,-0.0001421965
65.69957,-0.0001420779
65.79957,-0.0001419498
65.89957,-0.0001417991
65.99957,-0.0001417426
66.09956,-0.0001415844
66.19956,-0.0001414346
66.29956,-0.0001413264
66.39956,-0.0001411663
66.49956,-0.0001410335
66.59956,-0.0001409572
66.69955,-0.0001408206
66.79955,-0.0001406897
66.89955,-0.0001405673
66.99955,-0.0001404741
67.09955,-0.0001403149
67.19955,-0.000140168
67.29955,-0.0001400286
67.39954,-0.0001399147
67.49954,-0.000139813
67.59954,-0.0001396651
67.69954,-0.0001395333
67.79954,-0.0001394504
67.89954,-0.0001393384
67.99953,-0.0001391651
68.09953,-0.0001390493
68.19953,-0.0001389353
68.29953,-0.0001388185
68.39953,-0.0001387564
68.49953,-0.0001385586
68.59953,-0.0001384155
68.69952,-0.0001383486
68.79952,-0.0001382403
68.89952,-0.0001380953
68.99952,-0.0001380096
69.09952,-0.0001378231
69.19952,-0.0001376837
69.29951,-0.0001376188
69.39951,-0.0001374643
69.49951,-0.0001373023
69.59951,-0.000137243
69.69951,-0.0001370923
69.79951,-0.0001369558
69.89951,-0.0001368597
69.9995,-0.0001367156
70.0995,-0.0001365631
70.1995,-0.0001364755
70.2995,-0.0001363851
70.3995,-0.0001362203
70.4995,-0.0001361393
70.59949,-0.0001359952
70.69949,-0.0001358276
70.79949,-0.0001357824
70.89949,-0.0001356496
70.99949,-0.0001354914
71.09949,-0.0001354
71.19949,-0.0001353021
71.29948,-0.0001352296
71.39948,-0.0001351128
71.49948,-0.0001349744
71.59948,-0.0001348124
71.69948,-0.0001347229
71.79948,-0.0001346005
71.89948,-0.0001344762
71.99947,-0.0001344131
72.09947,-0.0001342832
72.19947,-0.0001341711
72.29947,-0.0001340496
72.39947,-0.0001339262
72.49947,-0.0001338434
72.59946,-0.0001337614
72.69946,-0.0001336343
72.79946,-0.0001335128
72.89946,-0.0001334328
72.99946,-0.0001332802
73.09946,-0.000133154
73.19946,-0.0001330796
73.29945,-0.0001329233
73.39945,-0.0001327896
73.49945,-0.0001327312
73.59945,-0.000132621
73.69945,-0.0001324844
73.79945,-0.00013233
73.89944,-0.000132266
73.99944,-0.000132152
74.09944,-0.0001320079
74.19944,-0.0001319345
74.29944,-0.000131829
74.39944,-0.0001317075
74.49944,-0.0001316359
74.59943,-0.0001315267
74.69943,-0.0001314052
74.79943,-0.000131344
74.89943,-0.0001312319
74.99943,-0.000131101
75.09943,-0.0001310361
75.19942,-0.0001309748
75.29942,-0.0001309033
75.39942,-0.0001307874
75.49942,-0.0001306396
75.59942,-0.0001304946
75.69942,-0.0001304399
75.79942,-0.0001303279
75.89941,-0.0001302384
75.99941,-0.0001301574
76.09941,-0.0001299992
76.19941,-0.0001298646
76.29941,-0.0001298241
76.39941,-0.0001297289
76.4994,-0.0001295858
76.5994,-0.0001295218
76.6994,-0.0001294021
76.7994,-0.0001292713
76.8994,-0.0001292543
76.9994,-0.0001291404
77.0994,-0.0001290038
77.19939,-0.0001289256
77.29939,-0.0001287797
77.39939,-0.0001286591
77.49939,-0.000128677
77.59939,-0.0001284906
77.69939,-0.0001283229
77.79939,-0.0001282278
77.89938,-0.0001281308
77.99938,-0.0001280103
78.09938,-0.000127934
78.19938,-0.0001278445
78.29938,-0.0001277475
78.39938,-0.0001277118
78.49937,-0.0001275884
78.59937,-0.0001274801
78.69937,-0.0001273991
78.79937,-0.00012732
78.89937,-0.000127222
78.99937,-0.0001271655
79.09937,-0.0001270139
79.19936,-0.0001268924
79.29936,-0.0001268086
79.39936,-0.0001267239
79.49936,-0.0001266466
79.59936,-0.0001265468
79.69936,-0.0001263924
79.79935,-0.000126318
79.89935,-0.0001261974
79.99935,-0.0001260826
80.09935,-0.0001259874
80.19935,-0.0001258923
80.29935,-0.000125784
80.39935,-0.0001256785
80.49934,-0.0001256023
80.59934,-0.0001254846
80.69934,-0.0001254177
80.79934,-0.0001253263
80.89934,-0.0001252039
80.99934,-0.0001250928
81.09933,-0.0001250175
81.19933,-0.0001248941
81.29933,-0.0001248065
81.39933,-0.0001247255
81.49933,-0.0001246078
81.59933,-0.0001245108
81.69933,-0.0001244421
81.79932,-0.0001243338
81.89932,-0.0001242339
81.99932,-0.000124087
82.09932,-0.0001240286
82.19932,-0.0001239571
82.29932,-0.0001238563
82.39931,-0.0001238158
82.49931,-0.0001237094
82.59931,-0.0001235907
82.69931,-0.0001235003
82.79931,-0.0001234165
82.89931,-0.0001232988
82.99931,-0.0001232517
83.0993,-0.0001231622
83.1993,-0.000123021
83.2993,-0.0001229541
83.3993,-0.0001228778
83.4993,-0.0001227733
83.5993,-0.0001227102
83.6993,-0.000122584
83.79929,-0.0001224833
83.89929,-0.0001224625
83.99929,-0.0001223589
84.09929,-0.0001222111
84.19929,-0.0001221527
84.29929,-0.0001220529
84.39928,-0.0001219719
84.49928,-0.000121889
84.59928,-0.0001217647
84.69928,-0.0001216508
84.79928,-0.0001216235
84.89928,-0.0001215039
84.99928,-0.0001214248
85.09927,-0.0001213466
85.19927,-0.0001212091
85.29927,-0.0001211761
85.39927,-0.0001210848
85.49927,-0.0001209793
85.59927,-0.0001208908
85.69926,-0.000120823
85.79926,-0.0001207184
85.89926,-0.0001206506
85.99926,-0.0001206215
86.09926,-0.0001204877
86.19926,-0.0001204256
86.29926,-0.0001203465
86.39925,-0.0001202806
86.49925,-0.0001201751
86.59925,-0.0001200498
86.69925,-0.0001199669
86.79925,-0.0001199076
86.89925,-0.0001198219
86.99924,-0.0001196901
87.09924,-0.0001196515
87.19924,-0.0001195573
87.29924,-0.0001194405
87.39924,-0.0001193981
87.49924,-0.0001192898
87.59924,-0.0001191759
87.69923,-0.0001191184
87.79923,-0.0001190111
87.89923,-0.0001189197
87.99923,-0.0001188736
